526
526
528
524
524
522
520
522
524
526
528
526
526
524
524
522
522
524
522
526
526
528
526
526
524
522
522
522
524
526
526
528
526
526
524
524
522
524
526
528
528
528
528
526
524
524
524
524
524
528
528
528
530
528
526
524
522
524
526
528
528
530
528
528
526
524
524
524
526
530
530
530
530
530
526
526
524
524
526
528
530
532
532
528
528
526
524
524
526
528
532
530
530
528
526
526
524
524
526
528
530
530
530
530
528
524
524
526
528
528
530
530
528
528
526
526
524
524
526
528
530
528
530
528
526
526
524
526
528
528
530
530
530
528
526
526
524
526
526
528
528
530
530
530
528
526
524
526
526
528
530
530
530
530
528
524
526
526
528
528
530
532
530
530
530
528
526
528
528
530
532
532
532
530
530
528
526
526
528
530
532
534
534
532
534
530
530
530
532
534
536
538
536
536
534
532
530
532
532
534
534
534
534
530
530
528
528
526
528
528
530
530
532
530
528
526
524
524
524
528
530
530
528
526
526
524
522
522
524
526
528
528
528
528
528
524
524
522
528
526
528
530
528
528
524
524
520
520
520
518
518
518
518
518
518
520
524
530
540
550
562
576
588
602
616
626
636
646
654
658
658
654
644
632
616
600
582
566
552
540
534
526
520
514
508
504
502
498
500
502
504
506
508
510
508
508
508
508
508
510
512
514
516
512
512
510
510
510
512
512
514
516
518
514
514
512
512
512
512
514
516
516
518
518
516
516
514
514
516
516
518
520
520
522
520
518
516
516
518
520
522
524
524
524
522
520
518
518
520
520
522
524
524
524
522
520
520
520
522
524
526
528
528
526
524
524
522
522
524
526
528
528
530
528
526
526
526
524
524
526
530
532
530
530
530
528
528
526
526
532
532
534
534
534
534
532
530
530
530
532
534
536
536
536
536
536
532
534
536
536
536
540
538
538
538
536
534
534
538
536
536
538
538
538
536
534
532
530
530
532
534
534
534
532
530
528
526
526
526
526
528
530
528
528
526
524
522
522
522
524
524
526
526
526
524
524
520
520
520
522
524
524
526
526
524
524
522
522
520
522
524
526
526
526
526
522
524
522
522
522
526
526
528
526
524
524
522
522
522
524
526
528
528
526
526
524
522
522
522
524
526
528
528
526
528
524
524
524
524
524
528
528
528
528
528
526
526
522
524
526
528
528
530
530
526
526
524
524
524
526
526
528
530
528
528
526
524
524
522
526
528
528
528
528
528
526
524
524
524
524
528
528
530
528
528
526
524
524
524
526
528
530
530
530
530
526
524
524
524
524
528
530
530
530
528
526
526
524
524
526
528
530
530
530
528
528
526
524
524
526
526
528
530
528
526
526
526
524
524
524
528
528
530
530
530
528
526
524
524
524
528
528
530
532
530
528
526
524
524
524
528
530
530
528
530
528
526
524
524
526
528
528
530
530
528
528
526
524
526
524
528
530
532
532
528
528
526
526
526
526
528
530
532
532
530
528
528
526
526
528
530
532
534
536
534
534
532
530
532
532
532
536
536
538
534
534
532
530
530
530
534
532
534
534
532
532
530
528
526
528
528
530
530
532
532
528
526
524
522
524
526
528
528
528
526
524
524
524
522
522
524
528
530
528
528
526
524
524
524
524
526
528
528
528
526
524
522
518
516
514
516
516
518
518
520
524
530
534
542
554
566
580
596
610
624
634
646
652
658
656
654
648
638
626
610
594
576
560
546
534
528
522
516
512
508
504
502
500
500
500
504
506
508
512
512
510
508
508
508
510
512
512
516
514
514
512
510
508
510
512
514
514
516
516
516
514
512
512
512
512
514
516
518
518
518
516
516
514
514
516
516
520
520
522
520
522
518
516
516
518
520
522
522
524
522
520
520
518
518
520
522
522
524
526
526
524
522
520
520
522
524
524
526
528
526
526
526
524
522
524
528
526
528
528
530
528
526
526
526
526
528
528
530
532
532
532
528
528
528
528
530
532
534
536
534
534
532
530
530
530
532
536
538
536
536
536
534
532
532
532
534
536
540
540
540
538
536
534
534
536
534
536
538
538
538
536
534
530
530
530
530
530
532
532
532
532
528
526
524
524
524
526
526
528
528
528
524
522
522
522
522
524
526
526
526
526
524
522
520
520
520
524
524
526
528
524
524
522
522
520
522
526
526
526
528
524
526
522
522
522
524
526
526
528
526
526
524
522
522
524
524
526
526
528
528
530
524
524
522
524
526
526
528
528
528
526
528
524
522
524
526
526
528
530
528
526
526
526
526
522
524
526
530
528
528
530
528
524
524
524
524
528
530
530
530
530
528
526
524
524
526
528
528
530
530
530
528
526
526
524
526
526
530
530
530
530
528
526
524
526
524
526
530
530
530
530
528
526
524
524
526
526
528
530
530
528
526
526
524
524
526
528
528
530
530
530
526
526
524
524
526
528
528
530
530
530
528
526
526
526
526
526
528
530
530
530
528
526
524
524
524
526
530
530
530
530
528
526
524
524
526
526
528
530
530
530
528
526
524
524
526
528
528
530
530
528
528
526
524
524
526
526
528
530
530
530
528
526
526
526
524
528
530
530
530
530
530
528
528
526
526
528
530
530
532
532
530
528
526
528
526
530
532
534
536
534
534
530
532
530
532
534
536
536
536
536
534
532
530
530
530
532
532
534
534
530
530
528
528
526
528
528
528
532
530
530
528
526
524
524
524
526
526
528
528
528
526
524
524
522
524
524
526
528
528
530
526
526
522
522
526
526
526
528
528
526
526
522
518
516
514
514
514
518
520
522
524
532
536
544
556
568
584
598
614
628
636
646
654
658
656
652
648
636
626
608
590
574
556
544
532
524
520
516
512
510
504
502
500
500
500
502
506
510
510
512
510
510
508
508
508
508
512
512
514
512
512
510
510
510
508
514
514
516
516
518
516
514
512
512
512
514
516
518
518
518
516
518
514
516
516
516
518
520
520
522
520
518
516
516
518
518
520
522
524
524
522
520
520
520
520
522
522
524
524
524
526
522
520
520
520
520
522
526
528
526
526
524
522
522
522
526
526
528
530
528
528
526
526
526
524
528
528
530
530
532
532
530
530
528
528
528
532
532
536
534
536
532
532
530
530
534
534
536
538
538
536
536
532
532
534
534
536
540
538
538
538
538
534
534
534
532
536
538
538
538
536
536
532
532
530
530
530
532
534
532
530
528
526
524
524
526
526
526
528
528
526
526
522
520
522
522
524
524
526
526
526
524
522
522
522
522
522
526
526
526
524
524
522
520
522
522
524
524
526
526
528
524
522
522
522
522
524
524
526
528
526
524
524
522
522
522
526
526
528
528
526
524
524
522
522
524
526
526
528
530
526
526
524
524
524
524
526
528
528
530
530
526
524
524
524
524
526
528
528
528
528
526
526
524
526
526
526
528
530
530
530
528
526
524
524
526
528
528
530
530
530
526
526
524
524
524
526
530
530
530
528
528
526
524
524
524
526
530
530
530
530
528
528
524
524
526
526
528
530
532
530
528
528
526
524
524
526
528
530
530
530
530
526
526
524
526
528
528
528
530
528
528
528
526
524
524
526
528
532
530
528
528
528
526
524
526
526
528
530
532
530
528
526
526
524
524
528
530
528
530
530
526
526
526
524
526
526
528
530
530
530
528
526
526
524
524
528
528
532
532
532
528
528
526
526
528
528
530
530
532
530
530
528
530
528
530
532
532
536
536
536
536
532
532
530
532
532
534
534
536
536
534
532
528
528
528
530
532
532
534
532
530
528
526
524
524
526
528
528
530
530
528
526
524
524
524
524
526
528
528
530
528
526
524
524
524
524
526
528
530
530
528
526
524
522
522
524
524
524
522
520
520
514
512
512
514
520
526
532
540
548
558
566
578
592
606
622
634
648
658
660
662
654
644
632
620
606
592
578
564
550
538
528
518
512
508
506
504
506
506
506
506
504
502
504
506
508
510
512
514
514
512
512
510
508
508
510
512
514
516
516
514
512
512
510
512
512
514
516
518
518
516
516
514
514
514
514
516
518
518
520
518
518
516
516
516
518
520
520
522
522
522
520
518
518
518
520
522
522
524
528
524
522
520
520
520
520
524
524
526
526
526
522
522
522
522
522
524
528
528
530
528
526
526
524
524
526
528
530
530
530
530
530
528
526
526
528
528
532
532
534
532
530
530
530
530
530
532
534
536
536
536
534
532
530
532
532
534
536
538
538
538
538
536
534
534
534
534
538
540
540
538
536
534
534
532
532
534
534
538
536
534
534
530
528
528
526
528
530
532
530
528
526
526
524
522
524
524
526
526
528
526
526
522
522
522
520
522
524
526
526
526
522
524
522
522
520
522
526
526
526
526
524
522
522
522
524
524
526
526
528
526
524
524
522
520
524
524
526
528
528
528
528
524
522
522
522
526
526
528
530
528
528
524
524
524
524
524
528
528
530
528
528
526
524
524
524
526
528
530
528
528
528
526
524
524
526
526
528
530
530
530
528
526
524
524
524
526
528
528
530
530
530
526
524
524
524
528
528
530
532
530
530
526
526
524
524
528
528
530
530
530
530
528
526
526
526
526
528
530
530
532
528
526
526
526
526
526
528
530
530
530
530
528
524
524
526
528
528
530
532
530
530
528
526
524
526
526
530
530
532
532
528
528
526
524
524
526
528
530
530
530
528
526
526
524
526
528
528
530
530
530
528
528
526
526
524
528
528
530
532
530
528
528
526
526
526
526
530
530
532
532
532
530
528
526
526
528
530
530
532
534
532
532
530
528
530
532
534
536
536
536
536
534
532
532
530
532
532
536
536
536
534
532
530
528
528
526
530
532
532
532
532
530
526
526
524
526
528
530
530
532
528
526
524
524
522
524
526
526
528
528
528
526
526
524
524
526
526
528
530
530
528
526
524
522
522
522
524
524
526
522
520
516
514
514
516
520
526
534
542
550
562
570
582
594
606
620
632
646
658
658
656
648
638
626
612
598
584
572
558
546
536
526
516
510
508
506
504
504
504
504
506
504
504
504
504
508
508
512
514
514
516
512
512
510
510
512
514
514
516
518
518
514
514
512
512
514
514
518
518
518
518
518
516
514
514
516
518
518
522
522
522
520
520
516
518
516
518
522
524
524
524
520
520
520
520
520
522
522
524
526
526
522
524
520
522
522
524
526
528
530
528
526
524
524
522
522
526
528
528
530
530
528
526
526
524
526
528
528
530
532
530
530
528
528
526
528
530
532
532
534
534
532
532
530
530
532
534
534
536
538
536
536
534
532
532
532
534
536
538
540
540
538
536
534
534
536
536
540
540
540
540
540
538
534
532
534
534
534
536
536
534
534
530
528
528
528
528
530
530
530
530
528
524
524
522
522
526
524
526
526
526
526
522
520
520
522
522
524
526
526
524
524
522
520
520
520
524
524
526
526
526
526
526
522
522
520
522
524
526
526
526
526
522
522
522
522
524
524
526
528
526
526
526
524
522
524
524
524
528
528
528
528
526
524
522
524
524
524
526
530
528
528
526
524
524
524
524
526
528
530
530
528
526
524
524
524
526
526
528
530
530
526
526
524
524
524
526
528
528
530
530
528
528
526
524
524
526
528
530
530
530
528
528
526
524
524
526
528
528
530
530
528
526
526
526
524
526
528
528
530
530
530
528
526
524
524
526
528
530
530
530
530
528
526
524
524
526
530
528
530
532
528
528
526
524
524
524
528
528
530
530
528
528
526
524
524
524
526
528
530
530
528
528
526
524
524
526
530
528
530
530
530
528
526
526
524
526
528
530
530
532
532
528
528
526
526
528
528
532
532
532
534
532
530
530
532
530
534
534
536
536
536
534
532
530
530
530
532
534
534
534
532
532
528
528
526
528
528
528
532
532
530
528
524
524
524
524
524
528
530
528
528
526
524
522
522
524
526
526
528
528
528
526
526
524
526
524
526
528
528
530
528
526
524
520
518
518
516
516
518
518
520
522
524
530
536
546
558
570
584
598
610
620
630
640
646
648
650
644
636
626
610
596
580
564
550
538
530
526
520
516
512
506
506
502
500
500
500
502
506
508
510
508
508
508
508
510
510
514
518
516
516
514
514
512
510
514
514
514
518
518
518
516
514
514
514
512
516
518
518
520
520
518
516
516
516
516
518
520
522
524
524
522
520
518
518
518
520
524
524
524
522
524
522
522
520
522
522
524
526
526
526
526
524
522
522
522
522
524
528
528
526
528
526
524
524
524
526
528
528
530
530
528
528
526
526
526
526
530
532
534
532
532
530
528
528
528
530
532
534
534
536
534
532
530
530
530
534
536
538
538
536
536
534
534
534
532
532
536
538
540
540
538
536
534
534
534
534
536
538
538
538
536
532
532
530
528
530
532
534
534
532
530
530
526
524
524
524
526
528
528
528
526
524
522
520
522
522
522
524
526
526
526
522
522
520
520
520
524
526
526
526
524
524
522
520
522
522
524
524
526
526
528
526
522
520
522
522
526
526
526
526
526
524
522
522
522
524
522
528
528
528
528
526
522
522
524
522
524
528
528
528
528
526
524
522
522
524
526
526
528
528
528
526
524
524
524
524
526
528
530
530
530
526
526
524
524
524
526
528
532
528
530
528
526
524
524
524
528
528
530
530
530
526
526
524
524
524
528
530
530
530
526
528
526
526
524
526
526
528
530
530
530
528
528
524
526
526
526
528
532
530
530
528
524
524
524
526
528
528
530
530
530
528
526
524
526
526
526
528
528
530
528
526
526
526
524
526
528
528
530
530
528
528
526
526
524
526
528
528
530
530
528
528
526
524
524
526
526
528
530
532
530
528
528
526
526
526
528
530
532
532
530
530
528
526
526
526
528
530
532
534
534
534
532
530
530
532
532
534
536
536
538
536
532
530
530
530
530
532
534
534
532
532
528
526
526
528
528
530
530
530
530
526
526
524
524
524
524
526
528
528
528
528
526
524
522
522
524
526
528
528
528
528
526
524
524
524
524
526
528
528
526
524
522
518
516
514
514
514
518
520
522
526
532
538
546
558
570
586
602
618
628
640
650
658
660
660
656
648
638
626
610
592
574
556
542
530
522
518
514
510
508
504
500
500
498
500
502
506
510
512
512
512
510
508
506
508
512
512
514
514
514
514
510
510
510
508
512
512
514
516
516
516
516
512
512
514
512
514
518
518
518
518
518
514
514
514
516
518
520
522
520
520
520
518
516
516
518
520
520
522
522
522
522
520
518
520
520
522
524
526
524
524
524
522
520
520
522
524
526
528
526
526
526
524
522
524
524
526
528
528
530
528
526
526
526
524
526
528
530
532
532
530
528
528
528
528
530
532
534
534
534
534
534
530
530
532
530
532
536
536
536
536
534
534
534
532
534
536
538
540
540
540
538
536
534
534
534
536
538
538
538
536
536
532
530
530
530
530
530
532
532
532
528
526
526
524
524
526
528
530
528
526
524
522
522
522
522
522
526
526
526
526
524
522
520
522
522
524
526
526
526
524
524
522
520
522
522
524
524
526
526
526
526
522
520
522
522
524
526
526
528
526
524
522
522
522
522
524
528
528
528
526
526
524
524
522
526
526
528
528
528
528
526
524
524
522
524
526
526
530
530
528
528
524
524
524
522
528
528
528
528
528
528
526
526
524
524
528
528
530
530
530
528
526
524
524
526
526
528
530
532
530
530
526
524
524
526
526
530
530
530
530
528
526
526
524
526
528
528
530
532
528
528
526
526
524
524
526
528
530
530
528
528
526
526
524
522
528
528
530
530
528
526
528
526
524
526
526
528
530
530
528
530
526
524
524
524
526
528
530
530
530
528
526
526
524
524
526
528
530
530
530
530
526
526
524
526
526
528
528
532
530
528
528
526
524
524
526
528
530
530
532
530
528
526
528
526
528
530
532
532
530
532
528
528
526
526
530
532
534
534
536
534
534
532
530
530
532
536
534
536
536
534
532
530
528
528
530
530
532
534
530
530
530
528
526
526
528
526
530
530
530
526
526
524
522
522
524
526
528
528
526
528
524
522
522
522
524
526
528
530
528
528
526
524
522
524
524
526
526
526
526
522
518
516
514
514
514
516
520
526
530
536
542
550
560
572
588
604
618
634
644
656
662
662
658
652
644
634
620
604
588
572
554
542
528
520
514
512
508
506
504
502
502
500
500
504
506
508
510
512
512
514
510
508
508
508
508
510
512
514
514
512
512
512
510
510
510
512
514
516
516
516
514
512
512
512
514
516
516
518
520
518
516
514
516
514
516
518
520
522
522
520
520
518
516
516
518
520
522
524
524
522
522
518
518
518
518
522
524
526
526
524
522
522
520
522
522
524
526
528
526
526
524
524
522
522
524
526
528
528
530
528
528
526
524
526
526
528
530
532
534
532
532
530
528
528
530
530
532
534
538
536
534
532
532
530
532
534
534
536
538
536
536
534
532
534
534
536
538
540
540
538
538
534
534
534
532
534
536
538
538
534
534
530
528
528
530
530
532
532
532
530
528
526
524
522
524
524
526
526
528
526
524
522
522
522
520
522
526
524
526
526
522
522
520
520
520
522
524
526
526
524
524
522
520
520
524
524
524
526
526
524
526
522
522
522
522
524
524
526
526
526
526
524
522
522
524
524
526
528
528
526
526
524
522
524
522
526
528
528
528
528
526
526
524
524
524
524
528
528
528
528
526
528
524
522
524
524
526
528
528
528
526
526
524
524
524
524
528
528
530
528
528
526
524
524
524
526
528
528
528
530
528
528
526
524
524
526
528
530
532
530
528
526
524
524
524
528
528
530
530
530
528
528
526
526
526
526
528
530
530
530
528
528
526
524
524
526
528
528
530
528
528
526
526
524
526
526
528
530
530
530
530
526
526
524
526
526
530
530
530
530
528
528
526
524
526
524
528
530
530
530
528
526
526
524
526
528
528
530
530
530
528
526
526
526
524
526
528
530
530
530
530
530
526
526
526
528
530
532
532
532
532
528
526
526
526
528
530
532
534
534
534
534
532
530
530
532
534
536
536
536
536
534
530
530
528
530
530
532
532
532
534
530
528
526
526
530
528
528
530
530
528
530
526
524
522
524
524
526
528
528
526
524
524
522
522
524
524
526
528
528
528
526
524
524
524
526
526
530
530
528
528
524
520
518
514
514
514
516
518
518
522
524
530
536
544
554
570
584
598
612
626
636
646
654
656
658
654
646
636
624
608
590
572
556
542
534
524
520
516
512
508
504
500
498
500
500
504
506
508
510
510
510
508
508
508
508
510
512
514
514
512
512
510
508
510
510
512
512
516
516
516
514
512
512
512
512
514
516
518
520
518
518
516
514
514
516
518
520
520
520
520
520
518
518
516
518
520
522
522
524
522
522
520
518
518
518
520
522
524
524
524
524
522
520
520
522
522
526
526
526
526
524
524
522
522
522
524
526
528
530
528
528
526
526
524
526
528
530
530
532
530
530
528
526
528
526
530
532
534
536
534
532
530
530
530
530
532
536
536
536
538
536
534
534
532
534
536
536
540
540
538
538
536
534
534
534
532
536
538
538
538
536
532
532
530
530
530
532
532
532
530
530
528
526
524
524
524
526
528
528
528
526
524
522
522
520
522
524
526
526
524
524
522
520
520
522
522
522
526
526
526
524
524
520
520
520
522
526
526
528
526
526
524
522
522
522
524
526
526
526
528
526
524
522
524
522
524
526
528
528
528
528
524
524
522
522
524
524
526
528
530
524
524
522
522
524
524
526
528
528
528
528
526
526
524
524
526
526
528
528
528
530
526
526
524
524
526
526
528
530
528
530
528
524
524
526
528
528
530
530
530
530
528
526
524
526
526
528
530
530
530
528
530
526
526
524
526
528
530
530
530
530
526
526
524
526
526
526
530
530
530
530
528
526
526
524
528
528
530
530
532
528
528
526
524
526
526
528
530
532
530
530
528
526
524
524
526
528
528
530
530
530
528
526
524
526
526
528
528
530
530
528
528
526
526
524
524
528
530
530
530
530
528
526
526
526
526
528
528
530
530
528
528
526
524
526
526
526
530
532
530
530
530
526
526
526
528
530
530
532
532
530
528
528
526
526
528
530
530
532
534
532
532
530
530
530
530
534
534
536
536
536
534
532
532
530
530
532
534
534
536
534
530
530
526
526
528
528
530
532
532
530
528
528
524
524
526
526
528
528
528
526
526
524
522
522
522
526
526
528
528
526
526
524
524
524
524
524
528
530
532
528
526
522
522
520
518
518
518
518
516
518
516
516
520
526
532
544
552
566
580
592
604
616
628
640
650
656
660
660
652
642
628
614
596
578
564
552
540
532
526
518
512
506
502
500
500
502
504
506
508
508
508
508
508
506
508
510
512
514
514
514
512
510
510
508
510
512
512
516
516
516
516
514
512
512
510
512
516
516
518
518
516
514
514
514
514
518
518
520
520
520
518
518
516
516
516
518
520
522
524
522
522
520
518
518
520
520
522
524
526
524
526
524
522
520
520
522
524
526
526
526
526
524
524
524
524
524
526
528
530
528
526
526
524
524
526
526
528
530
530
530
530
530
528
528
528
530
530
534
534
534
532
532
532
532
532
534
534
536
536
536
536
534
534
534
534
536
538
538
540
538
538
538
536
534
536
536
538
540
540
538
538
534
532
532
530
532
534
534
534
534
532
530
528
526
526
526
528
530
530
528
528
526
524
522
522
522
524
526
528
526
526
524
522
520
520
522
524
526
526
526
526
524
522
520
522
522
524
526
526
526
526
524
522
522
522
524
524
526
528
528
526
524
522
522
522
522
524
526
528
528
526
526
524
524
522
522
526
526
528
528
528
524
524
524
522
524
526
528
528
528
528
526
526
524
524
526
528
528
528
532
528
528
524
524
524
524
526
528
530
530
528
528
526
524
524
526
528
530
530
530
530
528
526
524
526
528
526
530
530
530
530
528
526
524
524
526
526
528
530
532
530
528
526
526
526
526
528
528
530
532
532
528
526
526
526
526
528
530
530
532
530
528
526
526
524
526
528
530
530
530
530
530
526
526
526
526
528
530
530
530
530
528
526
526
524
526
528
528
530
530
530
528
526
526
526
528
526
528
532
530
530
530
528
526
526
524
528
528
530
532
530
530
528
526
524
528
528
530
532
532
532
530
528
526
526
530
530
530
532
532
532
530
528
526
526
528
530
532
534
536
536
534
532
532
532
532
532
536
538
538
538
534
532
530
528
528
534
532
532
534
532
530
528
526
526
528
528
530
532
530
530
528
526
526
524
524
524
526
528
528
530
526
526
524
524
522
526
526
528
530
530
528
526
524
524
524
526
528
528
528
526
524
522
518
516
516
516
516
520
522
526
532
536
542
552
564
576
592
606
620
632
640
648
652
650
646
640
630
620
606
590
572
556
544
532
524
518
516
512
512
508
506
502
500
498
500
504
506
510
512
512
512
512
510
508
510
510
514
514
516
516
516
514
512
512
512
512
514
518
518
518
518
516
514
514
514
516
518
520
520
520
520
518
516
516
516
518
520
522
522
522
522
520
520
520
520
520
522
524
526
524
524
522
520
520
520
522
524
526
526
526
528
524
522
522
522
524
526
528
528
528
526
524
524
524
526
524
528
530
532
532
530
528
526
526
526
528
530
532
534
534
532
532
532
528
530
530
532
536
536
536
536
534
532
532
532
534
536
538
540
540
540
538
536
534
534
536
538
540
542
540
542
538
536
534
536
536
536
538
538
540
536
534
532
530
530
530
530
532
532
530
530
528
524
524
524
524
524
526
526
526
526
524
522
522
520
520
522
524
524
524
524
522
520
522
520
522
522
524
526
526
524
524
520
520
520
522
524
524
526
526
526
524
522
524
520
522
524
528
528
526
526
524
522
522
522
522
524
526
528
528
526
524
524
522
522
524
524
526
528
528
528
526
524
524
522
524
526
528
528
530
528
526
524
524
524
524
526
528
528
530
528
526
526
524
524
524
526
526
530
528
528
528
526
524
524
526
528
528
528
530
528
530
526
524
524
526
528
528
530
530
530
528
528
524
524
526
524
528
530
530
530
528
526
524
524
526
526
528
530
530
528
526
526
524
524
524
526
528
530
530
530
528
526
526
524
526
526
528
530
530
530
528
526
524
524
524
526
528
530
530
530
526
526
524
524
524
526
528
528
530
528
526
526
524
524
526
526
528
530
530
530
530
528
526
526
526
526
530
530
530
532
530
528
526
524
526
526
530
532
532
534
532
530
530
530
528
530
534
536
536
536
534
532
530
530
530
530
532
534
534
530
532
530
528
526
526
530
530
530
530
528
528
526
524
522
522
526
526
526
528
528
526
524
524
522
522
522
528
528
528
526
526
524
524
524
522
526
526
528
530
528
526
526
520
518
520
518
518
518
518
516
518
518
520
526
532
542
554
566
580
592
606
616
628
640
646
650
656
652
646
634
622
606
588
570
556
544
536
528
522
516
512
506
504
500
498
500
502
504
506
508
508
508
506
508
508
508
512
514
514
514
512
512
510
510
510
512
514
516
516
516
514
514
512
512
512
514
516
518
520
518
518
516
514
516
514
516
520
520
522
522
522
520
516
518
516
518
520
522
522
522
524
520
518
518
518
520
522
524
524
526
526
522
522
520
520
522
524
526
528
526
526
524
524
524
522
524
526
528
530
528
528
528
526
524
524
526
528
530
532
532
530
528
528
528
528
528
530
532
534
534
534
532
532
530
532
532
534
536
538
536
536
536
534
532
532
534
536
538
540
538
538
536
534
534
534
536
538
538
540
538
536
534
532
530
530
530
532
532
534
534
530
528
528
526
524
524
526
528
528
528
528
524
522
522
520
522
524
526
526
526
524
524
520
520
520
520
522
524
526
526
526
524
522
520
520
520
522
524
526
526
524
526
522
520
522
522
524
524
526
526
526
524
522
522
520
524
524
526
526
526
526
526
524
522
522
522
524
526
528
528
526
526
524
524
522
522
524
526
528
528
528
526
524
524
524
526
524
528
528
528
528
528
526
522
524
524
526
526
528
530
528
528
524
522
524
524
526
528
528
530
528
528
526
526
524
526
524
528
530
530
528
528
526
524
524
524
526
528
530
530
530
528
526
524
524
526
526
528
530
532
528
528
526
526
524
524
526
528
530
530
530
528
528
524
524
524
524
526
530
530
530
528
526
526
524
524
526
528
530
530
528
528
526
524
524
524
526
528
528
530
526
528
526
524
524
524
526
528
530
530
528
528
526
526
524
524
526
528
530
530
530
528
526
526
524
524
526
528
528
530
530
528
528
528
526
528
526
530
532
532
530
528
528
526
526
526
530
530
532
534
532
532
530
530
530
530
532
534
534
536
536
536
534
532
530
530
532
532
534
532
534
532
530
528
526
526
528
530
530
530
530
528
526
524
524
524
524
526
530
528
528
526
526
524
522
522
524
526
528
528
528
528
524
524
522
522
524
526
528
528
528
526
524
522
518
516
516
516
518
518
516
518
518
522
528
536
548
558
572
586
600
614
626
638
648
658
662
664
662
656
642
628
612
594
576
560
548
538
528
522
516
512
506
502
498
498
500
504
506
508
510
510
508
508
506
506
510
510
512
514
512
512
508
508
508
508
512
510
512
514
516
514
512
