524
544
532
510
518
544
536
512
514
542
546
522
522
548
552
530
522
542
552
530
516
534
550
528
512
526
546
530
508
520
542
532
510
516
542
538
512
512
540
540
516
510
536
548
584
646
684
644
560
498
492
500
484
468
486
512
506
488
500
528
524
504
510
538
540
516
516
542
550
526
520
544
556
536
522
544
560
542
526
544
564
548
528
538
560
550
526
532
556
550
526
524
548
550
524
518
540
548
522
512
532
546
524
508
526
542
526
504
520
540
526
504
514
536
528
506
508
534
532
506
504
530
534
510
502
526
538
514
502
522
538
518
502
518
540
524
504
514
538
530
508
512
536
534
510
510
536
538
514
508
534
540
518
508
528
544
520
506
524
544
528
508
522
544
534
510
518
542
536
512
516
540
540
516
514
538
546
524
518
544
556
534
520
540
554
534
516
530
550
534
512
522
544
536
510
516
540
536
512
510
536
538
514
510
534
542
518
508
530
542
534
582
670
696
622
538
510
508
490
466
478
506
506
486
494
522
524
504
506
532
540
518
512
536
550
530
518
538
556
540
522
538
558
546
526
538
562
554
530
534
558
556
530
530
552
556
530
524
546
554
530
518
538
550
530
514
530
546
530
510
522
542
532
508
516
538
532
506
510
534
534
508
506
530
534
510
504
526
536
514
502
520
538
520
502
516
538
522
502
514
536
528
506
512
536
532
510
508
534
536
514
508
532
540
518
508
528
542
524
508
526
542
528
508
522
542
532
510
518
540
536
512
514
538
540
514
512
536
542
518
510
534
544
526
516
536
554
538
520
534
554
540
518
526
548
540
516
520
542
540
516
514
538
538
516
510
532
542
520
508
528
542
524
508
526
544
528
522
604
692
676
596
542
524
500
468
470
498
502
484
486
514
524
506
500
526
540
522
510
530
550
534
518
532
554
544
522
534
556
550
528
532
558
556
532
532
554
558
534
528
550
558
536
522
542
556
536
518
534
550
536
514
526
546
536
512
518
540
536
510
512
534
536
512
508
530
536
512
504
526
536
516
502
520
536
520
502
516
536
524
504
512
536
528
506
510
534
532
510
508
532
536
512
506
530
538
518
506
526
540
522
506
524
540
526
508
520
540
530
508
516
540
534
512
514
538
538
514
510
536
540
520
510
532
544
526
510
528
544
530
512
530
554
544
522
532
554
546
522
524
546
546
520
518
540
542
518
510
532
542
520
508
528
542
524
506
522
542
528
508
522
542
532
510
538
632
690
652
592
556
520
478
468
492
502
484
480
506
522
506
496
518
536
524
508
524
546
536
516
528
552
548
526
530
554
554
530
530
554
558
536
530
552
562
538
526
546
560
540
522
538
554
542
520
532
550
538
516
522
544
538
516
516
538
540
514
508
532
540
516
506
526
538
518
502
520
536
520
502
516
534
526
502
510
534
528
504
506
532
530
508
506
530
534
512
506
526
538
518
506
528
546
532
516
532
550
536
516
526
546
538
514
520
540
536
512
512
534
538
514
508
530
538
516
506
528
540
520
506
522
540
522
506
522
584
652
668
634
592
536
482
472
494
496
476
478
506
518
500
494
520
534
518
506
526
544
530
514
530
550
540
520
532
554
548
526
532
556
554
532
532
556
558
536
526
550
558
536
524
544
556
538
520
536
552
538
516
528
546
536
512
520
542
536
510
512
536
534
512
508
530
536
514
504
526
536
516
502
520
536
520
502
516
536
528
510
520
544
538
514
518
540
538
514
512
536
536
514
506
528
536
516
502
524
536
522
504
520
538
524
506
516
538
528
508
514
538
570
626
674
658
594
518
484
492
494
474
470
496
514
498
488
512
532
518
502
520
542
534
514
526
548
544
522
526
550
550
528
528
552
556
534
528
552
562
540
528
546
560
542
524
538
556
542
520
532
552
542
518
526
546
540
516
514
538
540
516
510
532
538
516
506
526
538
518
502
520
538
518
502
516
534
524
504
512
534
530
508
516
540
540
516
514
538
542
518
510
530
540
520
506
524
538
522
502
518
538
524
504
514
538
530
506
512
536
532
510
510
534
538
548
620
690
666
580
514
502
500
478
464
484
508
498
484
502
526
520
500
512
538
536
514
518
544
544
522
520
546
554
534
524
546
558
538
524
544
562
546
526
540
560
548
526
534
556
550
524
526
550
546
522
520
542
546
522
514
536
544
520
508
526
540
522
506
520
540
524
504
516
538
526
504
510
532
530
504
508
530
532
510
506
532
542
522
512
534
546
524
510
526
542
526
506
522
540
526
504
512
536
530
506
510
534
532
510
506
532
536
514
506
528
540
518
514
598
684
674
600
554
528
492
464
474
498
496
478
490
518
520
500
502
530
536
514
512
536
546
526
516
538
554
536
522
538
558
544
524
538
558
550
528
536
558
552
528
530
554
554
528
524
548
552
528
518
540
550
528
514
530
546
528
508
520
540
528
508
516
538
530
506
510
534
532
508
506
530
534
510
504
526
534
514
502
520
534
518
500
516
536
520
502
514
534
526
504
512
534
532
508
510
534
536
512
508
532
538
516
506
528
542
522
506
526
542
526
508
522
542
532
508
518
540
536
512
514
538
540
514
512
538
542
518
510
532
544
524
510
528
544
522
510
526
544
532
510
522
544
536
514
522
550
550
526
528
550
552
526
520
542
550
526
514
534
546
522
508
526
544
528
508
522
542
532
508
518
542
536
512
514
538
540
516
516
598
678
672
612
570
536
490
466
484
502
490
476
498
522
514
496
508
534
530
510
516
542
542
520
520
546
552
528
522
546
560
536
526
546
562
544
528
542
564
550
526
540
560
548
526
530
554
548
522
524
546
546
522
518
536
546
522
510
530
544
522
506
524
542
524
504
518
538
526
504
512
536
528
506
510
532
530
506
506
528
534
512
502
526
536
516
502
522
538
522
504
518
538
526
504
516
538
530
508
514
536
534
512
512
534
538
516
510
532
542
520
508
528
542
524
508
526
542
528
508
522
542
532
510
518
542
536
514
516
538
540
516
512
536
544
520
510
532
544
524
510
528
544
530
510
524
546
532
512
520
544
538
514
520
548
550
526
524
548
554
530
520
542
552
528
516
534
548
530
512
526
544
530
510
518
542
534
510
516
540
536
514
514
538
540
516
510
536
592
646
666
644
592
522
480
484
498
486
470
490
516
510
492
504
530
528
506
512
542
542
520
520
544
550
528
522
544
556
538
524
544
560
544
528
542
562
550
528
538
558
550
528
532
554
550
526
524
546
550
524
518
540
548
526
512
532
544
526
508
522
542
526
506
516
538
528
506
512
534
530
506
506
530
532
508
504
528
534
512
502
522
536
516
502
520
536
520
504
518
538
526
506
514
538
532
510
512
536
536
512
510
532
540
516
508
530
542
522
512
534
552
536
518
534
554
538
518
528
548
538
516
518
540
536
514
514
536
538
514
508
532
540
518
508
528
542
524
508
524
542
528
508
550
646
690
640
582
550
512
472
470
494
500
480
484
510
522
504
498
522
536
520
508
528
546
534
516
532
554
544
522
532
556
550
528
532
556
556
534
532
554
560
536
528
550
558
536
522
542
556
536
518
532
550
536
516
526
546
536
512
518
540
536
512
512
534
536
512
508
528
536
514
502
522
536
518
502
518
536
522
502
516
540
532
512
520
544
538
514
516
540
538
514
510
534
536
516
508
528
538
516
502
520
538
522
502
518
538
526
506
514
538
532
508
516
560
634
668
646
606
552
492
468
486
498
480
472
498
516
504
492
512
534
524
506
518
544
536
516
522
550
546
524
524
550
552
530
526
550
558
536
528
548
560
540
526
544
560
542
522
536
556
542
520
528
550
542
518
520
542
542
516
514
536
542
518
508
528
540
520
504
524
538
520
502
518
536
522
502
512
534
526
504
508
534
534
512
514
538
542
520
512
534
544
520
508
528
542
522
504
520
538
524
504
514
536
528
506
512
536
532
510
510
534
536
512
506
530
560
610
662
666
618
538
486
486
498
482
468
486
510
506
488
502
528
524
506
510
538
540
518
518
542
550
526
520
542
556
534
522
544
558
542
526
542
562
548
528
538
560
550
526
530
554
550
526
524
546
548
524
518
538
548
524
512
532
544
524
508
524
542
524
506
516
536
528
504
510
534
528
506
506
530
532
508
504
526
534
510
502
522
536
516
502
520
542
528
512
526
548
536
514
522
544
538
512
514
538
536
512
510
532
536
514
506
528
538
518
504
522
540
522
506
520
540
528
506
518
558
622
662
654
618
554
492
472
490
494
474
474
502
516
498
492
516
534
518
504
524
544
532
514
528
550
544
522
530
554
550
526
530
556
556
534
528
554
560
536
526
548
560
538
524
540
556
538
520
532
552
540
516
524
546
538
514
516
540
540
514
510
534
538
514
504
526
536
516
502
520
536
518
502
516
536
522
502
512
534
526
504
508
532
530
506
506
530
534
510
504
528
536
514
504
524
538
522
506
522
540
526
506
518
540
530
508
516
540
536
512
510
538
538
514
512
534
542
520
510
530
544
522
510
530
544
528
508
524
548
538
520
530
554
548
522
524
548
546
522
518
542
546
520
512
534
544
522
508
528
544
524
506
522
542
530
508
518
542
534
510
514
540
568
616
670
668
608
528
486
494
500
476
470
496
516
502
490
510
532
522
504
518
542
536
514
522
548
544
522
524
550
554
530
526
550
558
536
528
550
562
542
526
544
562
544
524
538
558
546
522
530
552
544
518
520
544
544
518
514
540
542
518
508
532
542
520
506
524
540
522
504
518
538
524
502
512
536
528
502
508
534
530
506
504
530
534
510
504
526
538
516
502
524
540
520
504
522
540
524
504
516
540
532
506
514
538
536
510
512
536
538
514
508
534
542
518
508
530
544
524
508
526
544
528
508
522
544
534
510
520
542
536
512
518
542
546
522
522
548
554
530
520
542
552
530
516
534
550
530
510
526
544
532
508
520
542
534
510
514
540
538
514
512
536
542
516
508
534
554
598
654
678
634
552
494
488
500
486
468
484
514
506
490
500
526
526
504
510
536
542
518
514
540
552
528
520
542
556
538
524
542
560
546
528
540
562
550
530
538
560
554
528
530
554
554
528
524
546
552
526
516
538
548
526
510
530
546
528
508
522
542
528
506
516
538
530
506
512
534
534
508
506
530
536
510
502
526
536
514
502
522
536
520
500
518
538
522
504
514
538
530
506
512
536
534
510
510
534
538
512
508
532
540
518
508
528
542
524
508
526
544
528
508
522
542
534
508
518
542
538
512
514
538
540
516
512
536
544
520
510
534
550
532
520
540
558
540
520
534
554
540
516
524
546
538
514
518
540
540
514
512
534
542
518
508
532
542
520
508
528
544
526
508
522
546
580
636
678
656
582
510
486
498
492
470
476
506
514
494
494
520
532
514
504
528
544
528
512
532
552
538
518
534
556
548
524
532
556
554
530
532
558
558
536
528
552
560
536
524
546
560
536
520
538
554
536
516
530
550
536
512
522
544
536
512
514
538
538
512
508
532
538
512
504
526
538
516
502
522
538
520
502
516
536
524
502
512
536
528
504
510
534
532
508
506
532
536
512
506
530
538
518
506
526
540
522
506
522
542
528
506
518
542
532
510
516
540
538
512
512
538
540
516
512
536
542
518
510
532
544
524
508
526
544
528
510
524
548
