550
524
526
550
550
524
520
542
548
522
512
534
546
526
508
526
544
526
508
522
544
530
508
520
542
536
512
516
540
540
556
632
698
662
572
512
506
502
478
466
490
510
496
484
506
528
516
500
516
540
532
512
522
548
544
522
524
550
552
528
526
550
558
536
526
550
562
542
528
546
562
544
524
540
558
544
522
532
554
546
520
524
548
544
518
516
540
544
518
510
534
542
518
506
526
540
520
504
522
538
524
502
516
536
524
502
510
534
528
504
508
532
532
508
506
528
536
512
504
526
538
518
504
522
540
522
504
520
540
528
506
516
540
532
508
514
538
536
512
510
538
540
514
510
532
542
520
508
530
542
522
508
526
544
528
508
522
542
532
510
520
542
536
512
516
540
540
516
512
536
542
518
512
534
544
522
510
530
546
526
510
526
544
530
510
522
544
534
512
516
544
538
514
512
540
542
522
520
546
556
534
522
544
556
534
518
536
552
534
512
528
546
534
510
520
542
534
510
514
540
538
514
514
536
540
516
510
534
542
522
546
644
704
650
566
530
518
490
464
478
504
500
484
494
522
520
500
504
534
536
514
514
538
548
524
518
542
556
536
524
542
560
542
524
540
562
550
530
538
560
552
528
534
556
554
528
526
550
552
526
518
542
548
526
514
534
548
526
508
526
542
528
506
518
538
530
504
512
536
530
506
508
532
534
508
504
528
534
510
502
524
536
514
502
522
536
520
502
518
538
524
504
516
536
530
506
512
536
532
508
510
534
538
514
510
532
540
516
506
528
542
522
508
526
544
526
508
522
542
532
510
518
542
536
512
516
540
540
514
512
536
542
518
512
534
546
522
510
528
544
528
510
526
544
532
510
522
544
536
512
518
542
538
514
516
542
542
518
514
536
544
522
512
532
546
526
514
536
556
540
522
536
556
544
520
528
550
542
518
522
544
542
516
514
538
542
516
508
532
542
520
508
528
544
526
508
526
544
530
508
554
652
692
638
580
550
512
472
470
496
500
482
484
510
522
504
496
522
536
520
508
530
548
532
516
532
554
542
522
534
556
550
526
532
556
556
532
532
556
558
534
528
552
560
536
522
544
556
538
518
536
552
536
514
528
548
534
512
520
542
536
510
512
538
536
510
506
530
538
512
504
526
536
516
502
520
538
520
500
516
536
522
502
514
536
528
504
512
534
532
508
508
534
536
512
506
530
540
516
506
526
540
520
506
524
542
524
506
522
542
530
508
516
540
534
510
514
538
538
514
512
536
540
518
510
534
544
522
510
530
544
528
510
526
546
530
510
522
544
536
512
520
542
538
514
514
540
542
516
512
536
544
522
510
534
546
526
510
528
546
530
510
524
546
534
512
526
550
546
524
530
554
552
526
524
546
550
524
516
540
546
522
510
530
544
526
506
524
542
528
508
520
542
532
510
518
542
536
512
514
568
644
676
644
604
554
494
470
488
500
484
474
500
520
508
492
512
536
526
506
520
544
538
516
524
550
548
524
524
552
558
532
528
550
560
538
528
548
564
544
526
542
560
546
524
536
556
544
522
528
550
544
520
520
544
544
518
514
536
540
516
508
530
540
518
506
522
540
520
502
518
538
524
502
514
536
528
504
508
532
530
506
506
530
532
508
504
530
536
514
504
526
538
520
504
522
540
524
504
518
538
528
508
516
540
534
510
514
538
536
512
512
534
540
516
510
534
542
522
508
530
544
524
508
526
544
530
510
520
542
534
512
518
542
538
512
514
540
540
516
512
538
544
520
510
534
546
524
510
528
546
528
510
526
546
532
512
522
544
538
512
518
542
542
516
516
544
550
528
522
548
556
534
520
540
554
534
516
532
548
534
512
524
544
534
510
518
542
536
512
514
538
538
514
512
536
542
520
510
532
570
622
666
664
616
540
486
484
500
486
470
486
512
510
490
500
528
530
508
510
538
542
520
516
542
550
530
520
542
556
538
524
542
560
546
526
540
562
550
528
536
558
552
528
530
554
554
526
522
546
550
526
516
538
548
526
512
530
544
528
508
522
542
528
506
516
538
530
506
510
534
532
506
506
530
532
508
504
526
534
514
502
522
536
516
502
520
538
524
504
518
538
528
506
514
538
532
508
510
536
536
512
510
534
540
516
508
532
542
520
508
528
542
524
508
524
542
530
508
522
542
534
510
518
542
538
514
514
538
542
516
510
536
544
520
510
532
544
526
510
528
546
528
510
524
544
532
512
520
544
536
514
518
542
540
516
514
540
544
520
512
536
544
524
510
532
548
532
518
538
556
546
522
532
554
544
520
524
548
540
516
516
540
540
516
510
536
540
518
508
530
542
522
508
526
544
526
508
522
544
552
602
676
682
612
530
496
502
496
470
472
502
512
492
490
518
530
512
502
526
542
526
512
528
550
540
518
532
554
548
524
532
558
552
528
532
560
560
534
530
554
560
536
526
548
558
538
520
538
554
536
516
530
550
536
514
522
546
536
510
514
540
536
510
508
534
536
512
506
528
538
516
502
522
536
518
502
518
536
522
502
514
536
524
502
512
534
528
506
508
534
534
510
508
532
538
514
506
530
540
520
506
526
542
526
508
522
542
528
508
518
540
532
510
516
540
536
512
512
536
540
516
510
536
542
520
510
530
544
526
508
526
544
530
510
522
544
532
510
520
542
536
512
514
540
540
516
512
538
542
520
512
536
544
522
510
532
546
528
510
528
546
532
510
522
546
540
520
526
554
550
526
526
550
550
526
518
542
548
524
514
534
546
524
510
528
544
528
508
522
542
532
510
518
542
534
510
516
540
538
532
600
692
684
600
532
516
506
478
464
488
508
496
484
504
528
516
500
514
540
532
510
520
546
544
522
524
550
554
528
526
550
558
536
526
548
562
542
526
546
562
546
524
538
558
546
524
534
554
546
520
524
548
544
518
516
540
542
518
510
534
542
518
506
524
540
520
502
520
538
522
502
514
536
526
502
510
532
528
504
508
530
532
508
504
530
536
512
504
526
538
516
504
524
540
522
504
520
540
528
506
518
540
532
508
514
538
536
512
512
536
538
514
510
532
542
520
508
530
544
524
508
526
546
528
510
524
544
534
510
518
542
538
512
516
540
540
516
514
538
544
520
510
532
546
524
510
530
546
528
510
524
546
534
510
520
544
536
512
518
542
540
516
516
540
544
520
518
546
556
532
522
542
556
534
518
536
552
536
514
526
546
536
512
520
542
536
512
514
538
540
514
512
536
542
518
510
532
544
522
524
612
694
672
594
548
528
494
464
478
502
498
480
490
520
520
500
504
532
536
514
512
538
546
526
516
540
556
534
520
540
558
544
524
538
562
552
530
538
560
554
528
532
556
554
528
526
548
552
528
518
540
550
528
514
532
548
528
510
524
544
530
508
518
540
530
506
512
536
532
506
508
532
532
508
504
528
536
512
500
524
536
518
500
518
536
520
502
518
536
526
504
514
536
530
508
512
536
534
512
510
534
540
516
508
530
540
518
508
528
544
524
508
524
542
528
508
518
542
534
510
518
540
536
514
514
540
540
516
514
536
542
520
510
534
546
524
508
528
544
530
510
524
544
532
510
520
542
538
512
516
540
540
516
514
538
544
520
512
536
544
522
510
530
546
528
514
532
554
542
522
534
556
546
522
526
550
546
518
520
542
542
518
512
536
542
518
508
530
542
522
508
528
542
526
508
524
544
530
508
532
620
682
658
604
568
524
478
470
494
500
480
482
508
520
504
496
520
536
522
508
526
546
534
514
530
552
542
522
530
554
550
528
530
556
558
534
530
556
560
536
528
548
560
538
524
542
556
538
520
534
552
538
516
526
546
536
512
516
540
536
512
512
534
536
512
506
528
538
516
504
526
538
518
502
520
536
520
502
514
536
524
502
510
534
528
504
508
532
532
508
508
530
536
514
504
528
538
518
504
526
540
522
506
522
540
528
506
520
540
532
508
516
540
536
512
512
538
542
516
510
534
542
520
510
530
544
524
508
528
544
528
510
522
544
532
510
520
542
538
512
516
540
540
516
512
538
544
518
512
534
546
524
510
530
548
528
510
526
546
532
510
522
544
536
514
522
548
548
526
526
550
552
528
522
546
550
528
516
536
548
526
512
528
544
528
508
522
542
530
510
518
542
534
512
514
540
536
514
512
546
614
662
660
628
574
510
474
484
500
484
472
494
518
508
492
508
532
526
506
516
542
540
518
520
546
550
526
524
548
556
534
524
548
560
540
528
546
562
546
526
540
562
548
526
532
556
546
524
526
548
546
522
518
542
544
520
512
534
544
520
506
528
542
522
504
520
540
524
504
516
536
528
504
510
534
526
504
506
530
534
506
502
528
534
512
502
524
536
516
502
522
538
522
504
518
540
526
506
516
538
532
508
514
538
536
512
510
536
540
516
510
532
542
520
508
528
544
524
508
526
544
530
508
522
544
534
510
520
542
536
512
516
540
540
516
512
538
542
520
512
534
544
524
510
530
546
528
510
524
544
532
510
520
544
536
514
518
542
540
516
516
540
544
518
512
538
550
530
520
542
558
536
522
536
554
536
516
528
548
536
514
522
544
536
512
514
538
538
514
510
536
542
518
510
532
544
522
508
528
550
594
650
676
642
566
500
486
500
488
470
480
508
512
492
496
524
530
508
506
534
542
520
514
536
550
534
518
538
556
542
524
538
558
550
528
538
562
554
530
532
558
556
530
528
552
556
530
522
544
552
530
516
534
550
530
510
526
544
530
508
518
542
530
508
512
536
532
508
506
532
534
510
504
526
536
512
502
524
536
516
500
518
536
522
502
516
538
526
504
512
536
530
506
510
536
534
510
508
534
538
514
506
530
540
518
506
526
542
524
506
524
542
530
508
520
542
532
510
518
540
538
512
514
538
540
516
508
534
542
520
508
532
544
524
510
528
546
528
510
524
546
532
510
520
544
536
512
518
542
540
516
514
538
544
518
512
536
544
524
510
530
546
528
510
528
548
536
518
534
554
546
522
528
552
546
520
522
546
544
520
514
538
544
520
510
532
544
522
508
526
544
526
508
524
544
530
510
520
542
540
572
654
696
642
554
504
504
498
474
468
496
512
494
486
512
530
514
500
522
542
530
510
526
550
540
520
528
554
550
526
530
554
556
532
528
554
562
538
528
550
560
540
524
544
560
540
522
536
554
542
518
526
548
542
514
520
544
538
514
512
536
540
514
508
532
538
516
504
524
540
518
502
520
536
522
500
514
534
526
502
512
534
528
504
508
532
532
508
506
530
536
514
506
528
540
518
504
524
540
522
506
522
540
528
506
520
540
532
510
514
540
534
512
512
538
540
516
510
534
542
520
510
530
542
524
508
528
544
528
510
522
544
534
510
518
542
536
514
516
540
542
516
514
538
544
518
512
536
544
524
510
530
546
528
510
526
546
534
512
522
544
536
512
520
542
542
520
524
550
554
530
524
546
554
530
518
538
550
528
512
530
546
530
510
522
542
532
508
520
540
534
510
514
540
540
514
512
536
540
522
566
666
700
632
552
524
512
484
464
482
506
496
482
498
524
520
498
508
536
534
512
516
542
546
522
520
546
556
530
522
544
558
538
524
544
562
548
528
544
562
550
528
536
558
552
524
528
552
548
524
522
544
548
522
514
536
546
524
508
530
544
522
504
522
540
524
504
516
536
