524
510
502
502
512
524
540
548
550
542
526
510
502
502
512
526
540
550
550
542
526
512
502
502
512
526
542
552
562
574
590
610
632
658
678
686
682
666
638
602
562
524
498
482
480
488
498
504
504
494
480
466
458
460
472
486
506
518
518
514
500
486
480
480
490
506
522
534
536
528
518
502
494
494
502
518
536
548
548
542
528
514
504
504
514
530
544
554
558
550
536
522
512
512
520
534
550
560
564
556
540
528
518
516
526
540
554
564
568
560
546
530
520
520
528
542
558
568
572
562
550
534
522
520
528
540
556
566
568
560
546
532
520
518
524
536
554
564
566
558
544
528
516
514
520
534
548
558
560
554
540
524
512
510
516
528
542
554
556
550
534
520
508
504
510
522
538
550
552
544
530
514
504
502
506
518
534
544
550
542
528
512
500
498
504
516
532
544
546
540
526
510
498
496
500
514
530
542
544
538
524
508
498
494
500
514
528
540
544
538
524
508
498
494
500
512
528
538
544
538
526
510
496
494
500
514
528
540
544
540
526
510
498
496
500
514
530
542
544
540
526
512
500
496
502
514
530
542
548
540
528
514
502
496
502
516
532
544
548
542
530
514
502
498
504
518
532
544
548
542
534
514
502
500
504
516
532
544
550
544
532
518
504
500
504
516
532
546
550
546
532
518
504
500
504
516
534
546
552
544
534
518
506
500
504
520
534
546
550
546
532
518
506
500
504
518
534
546
550
546
534
520
506
502
506
518
534
548
552
546
536
520
506
502
504
518
534
546
552
548
536
520
510
506
514
526
540
548
548
540
526
514
504
504
512
526
540
550
550
542
528
514
506
504
512
526
540
550
550
542
528
516
506
506
514
526
538
548
550
542
530
518
506
506
512
526
538
548
548
544
530
516
508
506
514
524
538
546
548
542
532
518
508
506
514
524
538
548
548
542
530
516
504
498
504
516
530
546
552
550
538
526
510
504
506
518
534
546
554
552
540
526
510
504
506
516
532
546
554
550
540
526
512
504
508
520
536
552
560
560
550
536
522
514
518
528
544
556
564
562
550
536
520
512
514
524
538
554
560
558
546
530
516
508
508
520
534
548
554
554
542
526
512
504
506
516
530
544
550
550
540
524
510
502
502
512
526
542
548
548
538
524
510
502
502
514
526
542
550
550
540
524
510
502
504
512
528
544
552
550
540
526
510
502
502
514
540
578
616
650
674
684
676
660
642
626
612
600
582
560
534
504
478
464
460
466
478
494
502
504
496
482
470
464
466
478
494
512
522
524
518
504
490
484
484
496
512
528
540
540
532
520
506
498
498
508
524
540
550
552
544
530
516
506
506
516
532
548
558
560
552
538
522
514
512
524
536
554
562
564
556
542
526
518
518
526
540
556
566
568
560
546
532
522
522
530
544
560
570
570
560
548
530
522
520
528
542
558
566
568
558
544
528
518
518
524
538
552
562
564
554
540
524
514
512
520
532
548
558
560
552
538
520
510
508
516
530
544
554
554
546
532
516
506
502
510
524
538
548
550
542
528
512
500
498
508
520
536
546
548
540
526
510
498
496
504
518
534
544
546
538
524
508
498
494
502
516
532
542
544
538
524
508
496
494
502
514
530
540
544
538
522
506
496
494
500
514
530
542
544
536
522
508
496
492
500
516
530
542
546
538
524
510
498
494
502
514
532
542
546
540
528
512
500
496
504
516
534
544
548
540
528
512
500
498
502
518
534
544
548
542
530
514
502
498
504
518
534
546
548
544
530
514
502
500
504
516
534
546
550
544
530
514
504
498
506
518
534
546
550
546
532
516
504
500
506
518
534
546
550
544
532
516
504
500
506
518
534
546
550
546
532
518
504
500
508
518
534
546
552
546
534
518
506
502
504
518
534
546
550
546
534
518
506
502
508
518
536
548
552
546
534
518
506
502
506
520
534
546
552
548
534
520
506
502
508
520
536
548
552
548
534
520
508
502
508
518
534
548
554
550
536
520
508
504
506
518
536
548
552
548
536
522
508
502
506
518
534
548
552
548
536
522
510
504
506
518
534
546
554
550
538
522
510
504
508
518
534
546
552
550
538
524
508
504
506
518
532
548
552
550
538
524
510
504
508
518
532
546
552
550
538
522
510
504
506
518
532
548
552
550
538
524
510
504
506
518
532
548
552
550
540
524
510
504
506
514
534
546
554
552
540
526
510
504
506
516
532
548
552
552
540
524
510
504
504
516
532
546
552
552
542
526
510
504
506
516
532
546
554
552
540
526
512
504
504
518
532
546
554
552
542
526
512
504
506
516
532
546
554
552
542
526
512
504
504
516
532
546
554
554
544
532
516
510
512
524
540
556
564
562
554
538
524
516
516
526
540
554
562
560
550
536
520
512
512
522
536
550
558
556
546
530
514
506
506
516
532
544
554
552
542
526
512
502
504
514
528
542
550
550
540
526
512
502
500
512
526
542
548
552
540
526
510
502
502
512
526
540
550
550
540
528
512
502
502
512
526
542
550
550
542
528
524
538
570
612
660
698
716
710
684
642
596
560
532
520
518
518
518
512
498
482
466
456
454
464
482
498
510
512
508
494
482
474
474
486
500
518
530
532
524
514
500
490
492
500
516
532
544
546
538
526
512
502
502
512
524
542
554
556
548
536
518
512
510
518
534
548
560
562
554
540
526
516
514
522
536
554
564
566
558
546
530
520
518
526
542
556
568
570
564
550
534
524
520
528
542
558
568
570
562
548
532
520
518
526
538
554
564
566
560
546
528
518
514
520
534
550
560
562
556
542
524
512
510
514
528
544
556
556
550
536
522
508
506
512
524
540
550
552
546
532
516
506
502
506
520
534
546
548
544
532
512
502
498
506
516
532
544
546
540
528
512
500
496
504
516
530
542
546
538
526
510
498
494
500
514
528
540
544
538
526
510
498
494
498
510
528
540
544
538
526
508
498
492
498
512
528
540
544
540
528
510
498
494
500
512
528
540
544
540
528
512
500
496
500
514
530
542
548
540
528
514
502
498
502
516
532
542
548
542
530
516
502
498
502
514
530
542
548
544
530
516
504
498
502
516
530
544
548
544
534
516
504
500
504
514
530
544
550
546
534
518
506
500
504
516
530
544
550
546
534
520
506
500
504
516
532
546
550
548
534
520
506
500
502
516
532
544
550
548
536
522
508
502
506
518
532
544
550
548
536
522
508
502
504
516
532
546
552
550
536
522
508
502
506
516
532
546
552
548
538
522
508
502
504
516
532
544
552
548
538
522
510
502
506
516
530
546
552
550
538
524
510
502
506
516
530
546
552
550
542
524
510
504
506
516
530
546
552
550
540
524
510
504
506
516
532
546
552
550
540
524
512
504
506
516
530
546
552
550
540
526
512
504
506
516
530
546
552
552
540
524
512
504
506
516
530
544
552
550
540
526
512
504
504
514
530
544
552
552
542
526
512
504
504
516
528
544
552
552
542
528
514
504
504
514
528
544
552
552
542
528
512
506
504
516
528
544
552
552
540
528
514
504
506
514
528
544
552
552
542
530
514
506
504
514
528
542
552
552
542
530
514
506
504
514
528
542
552
552
542
528
514
504
504
514
526
542
552
552
544
530
514
506
504
514
526
544
552
554
544
530
516
504
502
514
528
542
552
554
544
532
514
506
504
512
528
542
552
552
544
530
516
506
506
514
530
548
558
560
552
542
526
516
516
524
538
552
562
564
556
540
526
516
514
520
534
548
558
560
552
538
522
510
508
516
528
544
552
554
546
532
518
506
504
510
524
540
550
552
544
530
514
504
502
510
522
538
548
550
542
530
516
504
500
508
522
538
548
550
544
530
514
504
500
508
520
538
548
552
544
530
516
504
502
508
524
554
590
624
652
670
678
672
658
644
630
616
600
578
550
520
492
472
462
464
474
490
500
504
498
488
474
466
464
472
488
506
518
526
520
510
496
484
484
492
504
522
536
540
536
524
510
500
498
504
518
534
546
552
548
536
520
510
506
510
524
542
556
560
554
544
528
516
512
518
532
546
560
564
558
548
532
520
516
520
536
550
562
568
564
552
536
526
520
526
538
554
566
570
564
552
538
524
520
526
536
552
564
570
564
552
536
522
516
520
532
548
560
564
560
548
532
518
512
516
530
542
556
560
554
544
526
514
508
510
522
538
550
556
550
538
522
508
504
506
518
532
546
550
546
534
518
506
500
502
516
530
542
548
544
532
518
502
498
498
512
526
540
544
544
530
514
502
496
500
508
524
538
544
540
530
512
500
494
498
508
522
536
542
540
528
516
500
494
496
506
522
536
542
540
530
516
500
496
496
508
524
538
544
542
532
516
502
496
498
510
524
538
544
544
532
518
504
498
498
510
524
538
546
542
534
520
506
500
500
512
524
540
546
544
534
520
506
500
502
512
526
540
546
544
534
522
508
502
500
512
526
540
546
546
534
520
508
502
502
514
528
542
546
546
536
526
510
504
506
514
526
540
546
546
538
524
512
504
506
516
528
540
546
546
536
524
512
504
506
516
528
540
546
548
538
524
512
506
506
516
528
540
548
548
538
526
512
506
506
514
526
540
548
548
540
526
514
506
508
516
526
540
548
548
540
526
514
506
506
516
526
540
548
548
542
528
514
506
506
514
528
542
548
550
540
528
516
506
506
514
526
540
548
550
542
530
516
508
506
514
526
540
548
550
544
530
516
508
508
516
526
540
548
548
542
530
516
508
506
514
526
540
548
548
542
530
516
508
508
512
526
540
548
550
544
530
518
508
506
510
526
538
550
550
544
532
518
508
506
514
526
540
550
550
544
532
518
508
506
514
526
538
548
552
544
532
518
508
506
514
526
538
548
550
544
532
518
508
506
512
524
540
548
552
544
532
518
508
506
512
526
538
548
550
544
532
518
510
506
512
524
538
550
550
544
532
518
510
506
512
526
538
548
552
544
532
520
508
506
512
524
538
548
552
548
538
526
516
514
522
532
548
558
562
558
544
532
520
518
522
534
546
556
560
554
540
528
516
514
518
528
540
552
554
550
538
522
512
508
514
524
536
546
550
546
536
520
508
504
510
520
534
544
548
544
532
518
508
504
508
518
532
544
548
544
534
518
508
504
506
518
532
544
548
544
534
520
508
504
508
520
532
544
548
544
536
534
546
574
612
654
692
710
706
682
646
604
564
534
516
510
510
512
510
502
488
474
462
458
462
472
490
504
510
510
502
490
480
478
482
494
510
524
530
530
522
506
498
494
498
508
522
536
544
542
532
522
510
504
506
522
534
546
552
552
542
530
518
512
516
526
540
552
560
558
548
536
524
518
520
532
544
558
564
562
552
540
526
520
524
532
548
560
566
566
556
544
530
524
528
536
548
560
568
566
554
540
528
522
522
530
544
556
564
562
552
538
526
518
520
526
542
554
558
558
548
534
520
512
514
524
536
548
554
552
544
530
516
508
512
518
530
542
550
548
540
526
512
506
506
514
528
540
546
544
538
522
508
502
500
512
524
536
544
542
534
522
508
500
500
510
522
534
540
540
532
518
506
498
498
506
520
532
540
540
530
518
504
498
496
506
518
532
540
538
532
518
504
496
496
506
518
532
540
540
532
520
506
498
496
506
520
534
542
542
536
522
506
498
498
508
520
534
542
544
536
524
510
500
500
508
522
534
544
544
536
524
510
502
500
510
522
536
546
546
538
524
512
502
502
510
522
536
546
548
540
526
512
502
502
508
522
536
546
546
540
526
512
504
502
512
522
538
546
548
540
528
514
504
500
510
524
538
546
548
542
528
514
504
502
510
524
538
548
548
542
528
514
504
502
512
522
538
548
550
542
530
516
506
504
512
524
540
550
554
548
536
524
514
512
520
534
548
560
562
556
542
528
518
514
520
530
546
556
560
552
542
524
512
510
512
526
540
552
554
548
534
520
508
504
510
522
538
546
550
544
532
518
504
502
506
520
534
546
550
542
530
516
504
500
506
518
534
544
550
544
532
516
504
500
506
518
534
546
550
544
532
518
506
500
506
520
534
546
552
562
574
592
614
642
670
686
690
682
658
624
584
546
512
492
482
484
494
502
504
498
486
472
460
458
464
480
496
510
516
516
506
492
482
478
484
500
516
528
536
532
522
508
498
494
500
512
528
542
548
546
534
520
508
504
508
522
538
550
556
554
542
528
516
510
516
528
544
556
562
560
548
534
520
516
520
532
548
560
566
562
552
536
524
520
522
534
550
564
570
566
554
542
526
522
524
534
548
562
568
564
552
538
524
518
522
532
546
560
564
562
550
534
520
514
516
526
542
554
560
556
548
530
516
510
512
522
538
550
556
552
540
526
512
506
508
518
532
544
552
550
538
522
508
502
504
512
528
542
546
546
538
520
504
498
502
510
526
538
546
542
532
518
504
496
498
510
522
536
542
542
532
516
502
496
498
506
522
538
542
540
532
516
502
494
496
506
520
536
542
540
532
518
502
494
496
508
522
534
542
542
532
518
504
496
496
506
522
536
544
544
534
520
504
498
498
508
522
538
544
544
534
520
506
498
500
508
524
536
546
546
536
524
508
500
500
510
524
538
546
546
536
524
508
500
500
510
524
538
548
548
538
524
510
502
502
512
524
538
548
548
540
526
512
502
502
512
526
540
548
550
538
526
512
502
504
510
524
540
550
552
542
530
518
510
510
520
534
550
560
560
552
540
524
514
514
522
534
548
560
558
550
536
522
510
510
518
530
544
554
554
546
530
516
506
506
514
526
540
550
552
542
526
514
502
502
510
524
538
546
550
540
526
512
502
500
508
522
538
546
548
542
526
512
502
502
508
522
536
546
546
536
524
512
506
508
518
530
540
546
544
534
530
536
558
594
638
678
706
710
692
660
620
580
548
528
518
512
512
510
502
492
476
464
458
462
470
484
498
506
506
500
492
484
478
482
492
504
518
526
526
520
510
500
496
498
506
522
532
540
538
532
522
512
508
508
518
532
542
548
548
542
532
520
514
516
524
538
550
556
554
548
538
526
520
518
526
538
554
564
568
560
548
534
522
518
526
536
552
566
570
564
552
536
524
520
524
538
552
564
568
562
550
534
522
518
524
534
550
562
566
562
548
532
520
514
518
530
546
556
562
554
544
528
516
510
514
526
540
552
556
550
540
524
510
506
510
522
536
548
552
548
534
520
508
502
506
518
532
544
548
544
532
518
504
498
504
516
528
540
546
542
528
514
502
496
500
512
526
538
544
540
528
512
500
496
498
510
526
536
544
538
528
512
500
494
496
508
524
536
542
540
528
514
500
494
496
508
524
536
542
540
528
514
502
496
498
510
524
538
544
540
530
514
502
496
500
510
526
538
544
542
532
516
504
498
500
512
526
540
546
544
532
518
506
500
502
512
526
540
546
546
534
520
506
500
504
512
528
542
548
546
534
520
506
500
502
514
528
542
548
546
536
522
508
500
504
514
528
542
548
548
536
520
508
502
504
514
530
544
550
548
540
524
512
504
508
516
536
550
556
554
542
532
522
518
522
534
546
554
558
552
540
528
518
514
518
530
542
550
552
548
536
524
514
510
514
524
536
546
548
544
532
522
510
506
510
520
534
542
546
542
532
518
508
504
508
520
532
540
544
540
530
516
508
504
508
518
532
540
544
542
530
518
508
506
510
520
532
542
546
542
532
520
508
506
518
548
590
634
670
696
698
682
654
626
602
584
570
558
542
524
504
484
468
460
462
472
484
496
500
500
492
482
474
472
476
490
504
516
522
522
512
502
494
490
494
506
520
530
536
536
526
516
506
504
508
518
530
542
546
546
538
526
516
514
516
526
538
552
554
554
544
532
522
518
522
530
544
554
560
558
548
536
526
522
524
534
548
558
562
562
552
540
532
526
528
538
548
560
564
562
552
540
530
524
528
534
546
556
562
560
550
538
526
520
522
532
542
554
558
556
546
534
522
516
518
526
538
548
554
552
542
530
518
512
512
522
532
544
548
548
538
528
514
508
508
518
528
540
546
544
532
522
508
504
504
512
526
538
542
542
532
518
506
500
500
510
522
534
542
540
530
518
506
500
500
508
522
532
540
538
528
516
504
498
498
506
520
532
540
538
530
516
506
498
498
508
518
532
538
538
530
518
506
500
500
508
520
532
540
538
530
520
508
500
502
508
522
534
540
540
534
522
508
502
502
510
520
532
540
540
534
522
510
504
504
510
524
534
542
542
534
522
512
506
504
510
524
534
542
546
540
530
514
504
498
504
514
530
542
548
546
534
518
508
502
506
518
530
544
550
546
534
520
506
502
504
518
532
544
550
544
536
520
506
502
506
518
532
544
550
548
536
522
512
508
512
524
540
554
560
558
548
532
520
514
518
528
544
554
560
558
546
530
516
510
514
524
538
550
556
552
542
526
512
506
508
522
534
546
552
550
538
524
510
504
504
516
530
542
548
546
538
520
508
500
504
514
528
542
548
546
536
522
508
500
504
512
528
542
548
548
538
524
510
502
502
514
528
542
548
548
538
522
510
512
532
570
618
666
702
714
700
670
632
596
568
552
542
538
532
520
502
482
464
456
456
466
482
496
506
508
500
488
476
472
476
486
502
518
528
528
520
508
494
488
490
502
516
532
542
542
534
522
508
500
502
512
528
542
552
552
544
532
518
510
510
520
534
550
558
558
550
538
522
516
516
526
540
554
564
564
556
542
528
520
518
528
542
558
566
568
560
544
532
522
522
530
546
558
568
568
560
544
530
520
520
526
542
556
566
564
556
542
528
518
516
524
538
552
562
560
554
538
524
514
512
520
532
548
556
556
548
534
518
508
508
514
528
542
552
552
544
530
514
504
502
512
522
538
548
548
538
526
512
502
500
508
522
536
544
546
536
524
508
498
496
504
520
534
542
544
536
522
506
496
494
502
516
532
540
542
534
522
506
496
494
502
514
530
540
544
534
524
506
496
494
502
514
530
540
544
536
522
508
498
496
502
516
530
542
544
538
524
508
498
496
504
516
532
542
544
538
526
510
500
498
504
518
532
542
546
540
528
512
502
498
504
518
534
544
548
540
528
512
502
500
506
518
534
544
548
542
530
514
502
500
506
520
534
546
548
542
528
516
502
500
506
518
536
546
550
544
532
514
504
500
508
520
534
546
550
544
530
516
504
502
508
520
534
546
550
544
532
518
506
502
506
520
536
548
550
546
532
518
506
502
506
520
534
546
550
546
532
518
506
504
508
520
536
548
552
546
534
518
506
504
510
520
536
548
552
548
534
520
508
502
508
520
536
546
552
546
534
520
506
504
508
522
536
548
552
546
534
520
508
504
508
520
534
548
552
548
536
520
508
504
508
520
534
546
552
548
536
522
510
504
508
520
534
546
552
550
536
522
508
504
508
520
534
548
552
548
536
522
508
504
506
518
536
546
552
548
536
522
510
504
508
520
534
548
554
550
538
522
510
504
508
518
534
546
552
550
536
524
510
504
508
518
532
546
552
550
538
522
510
504
508
518
534
546
552
550
538
524
510
504
506
520
532
546
552
552
538
524
512
506
510
520
536
552
558
558
548
534
520
516
520
528
544
558
564
560
552
534
520
514
518
526
542
552
560
556
546
530
516
510
512
522
536
548
556
552
540
526
512
504
508
516
532
544
550
548
536
522
508
502
504
516
528
542
548
548
540
524
508
502
504
514
530
542
550
548
538
524
508
502
504
514
528
542
550
548
538
524
510
502
506
514
532
562
594
626
652
666
674
668
658
646
632
618
598
574
542
512
486
470
464
470
482
494
502
502
494
482
470
464
466
478
494
512
520
522
514
502
490
482
486
496
514
528
538
538
528
518
504
496
498
510
524
540
548
550
542
530
514
506
508
520
532
548
558
558
550
534
522
514
514
524
540
554
564
564
554
542
526
518
520
528
542
558
566
566
558
544
530
522
522
532
546
560
568
568
558
546
530
522
522
530
544
558
566
566
558
544
530
518
518
526
540
554
564
564
554
540
524
516
512
520
536
550
558
560
548
536
520
510
508
518
532
546
552
554
544
530
516
506
504
510
526
540
550
550
542
528
512
502
500
508
522
536
548
548
538
524
508
500
498
506
520
534
544
544
538
522
508
498
496
502
516
532
542
544
536
524
506
496
494
502
514
530
540
542
536
522
508
496
494
502
516
530
540
544
536
522
508
496
494
502
514
530
542
544
538
524
508
498
496
504
516
532
542
544
538
526
510
500
498
506
518
532
544
546
538
526
512
500
498
506
518
532
544
548
542
526
512
502
500
506
518
534
546
548
542
530
514
502
500
506
522
534
544
550
542
528
514
504
500
506
520
534
546
550
546
530
514
504
500
508
520
534
546
550
544
532
516
504
502
506
518
534
546
550
544
532
518
506
502
508
518
534
546
550
546
536
518
508
502
508
520
534
546
550
548
534
520
508
504
506
520
534
546
550
548
536
520
508
504
506
518
532
546
552
548
536
522
508
504
506
518
534
546
552
550
536
522
510
502
508
518
534
546
552
548
536
522
510
502
506
518
532
546
552
548
538
522
510
504
508
518
532
546
552
550
540
524
510
504
508
518
532
544
550
544
536
526
518
516
518
524
532
536
538
536
532
524
520
518
520
524
530
536
540
536
530
524
520
518
518
528
540
550
556
552
540
524
510
502
506
514
530
544
550
550
538
524
510
502
506
516
530
544
552
550
540
526
512
504
504
514
530
544
552
550
542
526
512
504
506
516
530
546
552
552
542
526
512
504
506
516
530
544
552
554
540
526
512
504
506
514
530
544
554
552
540
526
512
504
506
516
530
544
552
552
542
528
512
504
504
516
530
544
554
552
542
528
512
504
504
516
528
544
554
554
544
530
516
508
510
520
536
554
562
562
552
540
524
516
516
526
538
554
562
562
552
538
522
512
512
522
536
548
558
558
548
534
518
508
506
516
530
544
552
552
546
530
514
504
504
512
528
540
550
550
540
526
512
502
502
508
524
540
550
550
542
528
512
502
502
510
524
540
550
550
542
528
512
502
502
512
526
540
548
554
544
530
512
508
530
566
614
664
702
716
706
676
634
596
568
548
540
536
532
522
506
486
468
456
454
462
476
496
506
510
504
494
480
472
472
482
498
516
528
530
524
512
498
490
488
496
514
530
542
546
538
524
512
500
500
510
524
540
552
554
548
534
520
510
508
518
530
548
560
562
554
542
526
516
514
522
536
552
564
566
560
546
530
520
518
526
538
556
568
570
564
550
534
524
520
528
542
556
566
570
562
548
534
522
520
524
538
554
564
566
560
546
530
520
516
520
532
550
560
564
556
544
526
514
510
516
528
544
556
558
552
538
522
510
506
512
524
540
552
554
550
534
518
506
502
508
518
536
548
550
544
532
514
502
498
502
518
532
544
546
540
528
512
500
496
502
514
528
542
546
540
526
510
498
494
500
512
528
540
544
540
526
510
498
494
498
512
528
540
544
538
526
510
498
494
498
512
526
540
544
540
526
512
498
494
498
512
528
540
544
542
530
512
500
494
502
512
528
542
546
542
530
514
502
496
502
512
530
542
548
544
530
516
502
498
502
514
530
544
548
544
532
516
504
498
502
514
530
544
548
544
534
518
504
500
504
514
532
544
550
546
536
520
506
500
504
516
530
544
550
548
536
520
506
500
504
514
532
544
552
546
536
520
506
500
504
516
532
546
550
548
536
522
508
502
504
518
532
546
552
548
538
522
508
502
504
516
532
544
552
550
536
522
508
502
502
516
530
544
552
552
538
522
510
502
504
516
532
546
554
550
538
524
510
502
504
516
532
546
552
550
540
524
510
502
504
516
530
546
552
552
540
524
510
504
504
516
532
544
552
550
542
526
510
502
504
516
530
546
552
552
542
526
512
504
504
514
530
546
552
550
540
526
512
504
504
514
530
544
552
550
542
524
512
502
504
514
530
546
552
552
542
526
512
504
504
514
530
546
552
552
542
526
512
502
504
516
528
544
552
552
542
526
512
504
504
512
532
544
552
552
542
528
512
504
504
512
528
546
552
552
542
528
514
504
504
514
528
544
552
552
544
528
514
504
502
512
528
542
554
554
544
530
514
504
504
512
528
544
552
554
542
528
514
504
504
512
528
544
552
554
544
530
514
504
502
514
528
542
552
554
544
530
514
506
504
514
530
546
556
558
552
536
524
514
514
522
540
554
564
564
556
542
526
514
512
524
536
552
560
564
552
536
522
510
508
516
530
546
556
556
546
534
518
508
504
512
526
542
550
552
544
530
514
502
502
508
524
540
550
550
542
530
514
502
500
508
524
538
550
550
542
530
514
504
500
508
522
538
548
552
546
532
514
504
502
508
520
538
552
568
584
602
622
642
660
674
680
674
658
634
598
560
522
494
480
474
482
494
502
506
496
484
470
460
460
470
484
502
516
522
516
504
490
480
480
490
504
520
534
538
532
520
506
494
494
502
516
534
546
552
544
532
516
506
504
512
526
542
554
558
554
540
524
514
510
518
532
548
560
564
558
546
530
518
516
522
534
552
564
568
564
550
534
522
518
526
540
554
566
572
566
552
536
524
520
524
538
552
566
570
564
550
534
522
516
522
534
548
562
566
560
548
530
518
512
518
528
546
558
562
558
544
526
514
508
514
526
540
552
556
550
538
520
510
504
506
520
534
550
552
546
534
518
504
500
504
518
532
544
550
544
532
514
502
496
500
514
528
546
546
542
530
512
500
494
502
512
528
540
546
542
528
512
500
494
498
508
526
540
544
540
526
512
498
494
496
510
526
538
544
540
528
512
498
494
498
508
526
538
546
542
530
514
500
494
498
510
526
540
546
542
532
516
502
496
498
512
526
540
546
544
530
518
504
498
500
512
528
542
548
546
534
518
504
498
500
514
528
542
550
546
534
518
504
498
502
514
528
544
548
548
536
520
506
500
502
514
528
544
550
548
536
520
506
500
502
514
530
544
552
548
538
522
506
500
502
514
530
546
552
548
538
524
508
502
506
512
530
544
552
550
538
522
508
502
502
514
530
544
550
550
540
524
508
502
504
516
530
544
550
550
538
524
510
502
504
514
530
544
552
550
540
524
510
502
504
514
528
544
552
552
540
526
510
502
504
516
530
544
552
550
540
524
512
504
506
516
530
544
552
552
540
526
510
504
504
514
530
544
552
552
542
526
512
502
504
514
530
544
552
552
542
526
512
504
504
516
530
544
552
552
542
530
512
504
504
514
528
544
552
552
542
528
514
504
504
514
530
542
556
552
542
528
514
504
504
512
528
544
552
552
544
528
514
504
506
514
528
544
552
554
544
528
514
504
504
514
528
544
554
554
544
528
514
504
508
512
528
544
554
554
544
528
514
504
504
512
528
544
552
552
544
530
514
504
504
514
528
542
552
554
544
528
514
506
504
514
528
542
552
554
544
530
514
506
504
514
528
542
552
554
544
530
516
504
504
514
526
542
552
554
546
532
518
508
508
518
532
550
562
564
556
542
528
518
516
522
536
554
562
564
554
542
524
514
510
520
532
548
558
558
550
536
520
510
506
514
528
542
552
554
548
534
516
506
502
510
524
538
550
552
544
532
512
502
500
508
522
538
550
550
542
528
514
504
500
508
520
538
548
