518
532
546
552
550
538
524
510
504
506
516
532
546
552
548
538
524
510
504
506
516
532
546
552
550
538
524
510
502
506
518
532
548
552
550
538
524
510
504
506
520
534
546
552
550
540
524
510
504
506
518
532
546
554
550
538
524
512
504
506
518
532
546
554
550
542
524
510
504
508
518
532
546
554
550
538
524
510
504
506
520
534
546
554
550
540
524
512
504
506
518
532
546
552
550
538
524
512
504
506
518
532
548
554
550
542
526
510
504
508
518
532
546
552
550
540
524
510
504
506
518
534
548
552
550
540
524
512
504
506
518
534
548
554
550
540
524
512
504
508
518
534
546
552
550
540
526
512
504
504
518
534
548
554
550
540
524
512
506
508
518
534
548
554
550
540
524
510
506
508
518
534
548
554
552
540
524
512
504
508
520
534
548
554
552
542
530
516
512
514
526
544
558
566
562
550
536
522
516
518
528
542
556
562
558
548
532
518
512
512
524
540
550
560
552
542
528
514
506
508
518
534
546
554
550
538
524
510
504
506
518
532
544
550
548
538
522
508
502
504
516
532
546
550
548
536
522
508
502
504
516
530
544
552
548
536
522
508
502
504
516
530
544
552
548
538
532
542
566
602
646
684
710
708
686
650
608
566
534
516
508
510
514
514
506
492
476
462
456
460
472
490
504
514
514
506
492
480
476
480
494
510
526
534
532
524
510
496
492
494
508
524
538
546
546
534
522
510
504
508
518
534
548
556
556
542
528
518
512
514
526
542
556
562
560
548
534
522
516
518
530
546
560
566
566
554
536
526
520
522
532
550
564
570
568
556
542
528
522
524
534
548
562
568
566
556
540
526
518
522
530
548
560
566
562
552
536
522
516
518
530
544
556
562
558
548
532
518
510
514
526
538
550
558
554
542
526
514
506
510
518
534
546
552
550
540
524
510
502
506
518
530
544
550
548
536
520
506
498
500
514
526
540
548
544
532
518
504
496
500
512
526
538
546
542
530
516
502
496
500
510
524
538
542
542
530
514
502
494
498
508
524
536
544
540
528
514
500
494
498
508
522
538
544
540
532
514
502
496
498
510
524
538
544
542
532
516
502
496
500
510
526
538
546
544
534
518
504
498
500
512
528
540
546
546
532
518
504
498
500
512
528
540
548
546
534
520
506
500
500
514
528
542
548
546
536
520
506
500
504
514
528
542
548
546
536
522
508
502
506
514
530
542
550
546
536
520
508
502
504
516
530
544
550
546
538
522
508
502
502
516
530
544
552
548
538
522
508
502
504
516
532
544
550
550
538
522
508
502
508
516
532
546
550
550
538
524
510
504
504
516
532
546
552
550
538
522
508
504
504
518
532
546
552
548
538
524
510
504
506
516
532
546
552
550
540
524
510
504
506
516
532
546
552
550
540
522
510
504
506
516
532
546
554
548
538
524
510
504
506
518
532
546
552
552
540
524
510
504
508
518
532
546
554
550
538
524
510
504
506
518
532
546
552
550
538
524
510
504
508
518
532
546
552
550
540
524
510
504
506
518
534
546
552
550
540
524
510
504
506
518
534
546
554
552
540
526
510
504
508
518
532
548
552
550
538
524
512
504
506
518
532
546
554
552
542
526
510
504
506
518
534
546
552
552
540
526
510
504
508
516
534
546
554
550
540
524
510
504
506
518
532
546
554
552
538
524
510
504
508
520
534
548
552
550
538
524
510
504
508
518
534
548
552
550
538
524
512
504
508
520
534
546
554
550
538
524
510
504
506
518
532
546
552
552
538
524
512
506
510
520
536
550
558
556
548
532
520
514
518
528
544
558
564
562
552
536
520
514
518
528
542
554
562
560
546
530
518
510
512
524
536
550
558
554
542
526
514
506
508
518
534
546
552
548
540
522
508
502
504
516
532
544
552
548
536
522
508
502
504
514
530
544
550
548
536
522
508
500
504
512
530
546
550
548
536
522
508
502
506
516
532
544
554
568
582
600
622
644
666
680
682
672
652
620
582
542
512
488
480
482
492
500
506
502
490
476
464
460
466
478
496
510
520
520
510
496
484
480
486
498
514
530
538
536
528
512
500
496
498
512
528
542
550
548
536
524
512
504
510
522
536
552
558
556
546
530
518
512
516
526
544
558
564
560
548
536
522
516
520
532
548
560
568
564
554
538
526
520
524
534
550
564
570
568
556
542
528
520
524
534
550
562
570
566
554
540
524
518
520
532
546
558
566
562
552
536
522
514
516
528
542
556
560
558
546
530
516
510
510
522
538
550
556
552
540
526
512
506
510
520
532
548
552
548
538
522
508
502
504
514
530
542
548
546
536
518
504
498
500
512
528
540
546
544
532
516
502
496
500
510
526
538
544
544
530
514
502
494
496
508
524
538
544
542
528
514
500
494
496
508
524
536
542
538
528
514
502
494
500
510
524
538
544
542
530
516
500
496
498
510
526
538
546
542
530
516
502
496
500
510
526
540
546
544
532
516
504
498
500
512
528
540
548
544
534
518
504
498
502
512
530
542
548
548
534
518
504
500
502
514
530
542
548
546
532
520
506
500
504
514
530
542
550
546
536
520
506
500
504
514
530
544
550
546
536
522
508
502
504
516
530
544
550
548
536
522
508
502
504
516
532
546
550
548
536
520
508
502
506
518
532
544
552
548
536
522
508
502
504
518
534
544
552
548
536
524
510
502
506
518
532
546
552
550
538
522
508
504
506
518
532
546
552
548
538
522
508
502
504
516
532
546
552
550
538
522
510
504
506
520
534
546
554
550
538
522
510
504
506
520
532
546
552
548
538
522
510
504
506
520
534
548
554
550
540
524
510
504
508
518
534
548
554
548
538
522
510
504
508
520
534
546
552
550
538
524
510
504
508
518
534
546
552
550
538
524
510
504
508
518
534
546
552
548
538
524
510
504
508
518
534
546
552
548
538
524
510
504
506
518
536
548
552
550
538
524
510
504
508
518
534
548
552
550
540
524
510
504
504
518
534
548
554
550
538
524
510
504
506
520
534
546
554
550
538
524
510
506
506
518
534
546
554
550
538
524
510
504
508
518
534
548
554
550
538
524
510
504
508
520
534
548
554
550
538
524
510
504
508
518
534
548
554
550
538
524
512
504
506
520
534
548
552
550
540
524
510
506
510
522
538
554
562
558
548
532
520
516
520
532
546
558
564
562
550
534
520
514
516
528
544
554
560
556
544
528
514
508
512
522
536
550
554
552
540
524
510
504
506
518
534
546
552
548
536
520
508
502
504
516
532
544
550
546
536
522
508
502
506
516
532
544
552
546
536
522
508
502
506
516
532
546
552
546
536
520
508
502
506
516
542
574
610
642
662
674
672
660
646
632
620
604
584
560
530
502
478
466
466
474
486
500
506
502
494
480
468
464
472
484
502
518
524
522
514
500
488
484
490
502
520
534
540
540
528
514
502
498
504
514
532
546
550
550
538
524
512
508
512
522
540
556
560
558
546
530
520
514
518
528
546
560
566
560
550
534
522
518
522
532
548
562
568
564
554
538
526
520
526
536
552
564
570
564
554
540
526
520
524
536
550
562
568
564
552
536
522
518
520
532
548
560
564
558
548
532
518
514
516
528
542
556
560
556
544
528
514
508
512
524
538
550
556
552
540
522
510
504
508
518
534
546
552
548
534
520
506
500
504
514
530
544
548
544
532
516
502
496
500
512
528
540
546
542
530
514
502
496
500
508
526
538
544
540
528
514
500
496
498
510
526
538
544
540
528
512
500
494
498
510
524
540
544
540
528
512
500
496
498
510
526
540
544
540
528
514
502
496
500
512
526
540
544
540
530
514
502
498
502
512
528
540
548
542
532
516
502
498
502
512
528
542
548
542
532
516
504
498
504
512
530
542
548
544
534
518
504
500
504
516
532
544
550
544
534
518
504
500
504
516
532
546
550
546
534
518
506
502
506
516
532
544
550
546
534
520
506
502
504
518
532
546
550
546
536
520
508
502
506
518
532
546
552
548
536
520
508
502
506
518
534
546
550
548
536
520
508
502
508
520
534
546
552
546
536
520
508
502
506
518
534
548
552
548
536
520
508
504
508
520
536
546
552
550
536
520
508
502
508
520
534
548
552
548
536
520
508
504
506
520
536
548
554
548
536
520
508
504
506
520
534
546
552
548
538
522
508
504
508
520
536
550
554
550
536
522
510
504
508
518
536
548
554
548
536
522
508
504
508
520
536
548
552
548
538
520
510
502
508
522
536
548
554
548
536
520
508
504
508
520
536
548
552
548
536
520
508
504
508
522
536
548
552
548
536
522
508
504
508
522
536
550
554
548
536
522
508
504
510
520
536
548
554
550
536
520
510
504
508
520
536
548
554
550
536
522
508
504
508
520
536
548
554
548
536
520
508
504
508
520
536
550
554
550
536
520
510
504
508
522
536
548
554
550
538
522
508
504
508
520
536
550
552
548
536
522
510
504
508
522
536
550
554
548
536
522
508
504
508
522
536
550
554
548
538
522
512
508
514
526
544
558
562
558
548
532
520
516
520
532
548
560
564
560
546
530
516
512
516
528
544
556
558
554
542
524
512
508
512
522
538
552
556
550
538
520
508
504
508
520
536
548
552
546
534
518
506
502
506
518
532
546
550
546
532
518
506
502
506
518
534
546
550
548
532
520
506
502
506
518
534
548
550
546
536
518
506
504
524
564
610
656
692
704
698
670
636
606
582
568
558
550
540
522
500
478
464
456
462
472
488
502
508
506
496
482
472
470
478
494
508
524
530
524
514
502
490
488
494
508
524
538
544
540
528
516
504
500
506
520
536
548
554
552
538
524
512
508
512
526
542
556
560
558
544
530
518
514
520
534
548
562
564
560
548
534
522
518
524
538
552
564
568
564
554
538
526
522
528
538
556
566
568
564
552
536
524
520
526
536
552
564
568
560
550
534
522
518
522
534
548
560
564
558
546
530
516
512
516
530
544
554
558
552
540
524
512
506
512
524
540
550
554
548
536
520
508
504
508
520
536
546
552
544
534
516
504
500
506
518
532
544
546
542
528
514
500
496
502
516
530
540
546
540
526
512
500
496
502
512
530
540
544
540
526
510
498
494
498
514
528
540
544
536
528
510
498
494
500
512
528
540
544
538
524
510
498
496
500
512
528
540
542
540
528
510
500
496
504
516
530
540
546
540
528
514
502
498
502
516
532
542
546
542
528
512
502
498
504
518
532
544
548
542
528
514
502
500
506
520
532
544
548
542
530
516
504
500
506
518
536
546
548
544
530
516
504
500
506
520
534
546
550
544
532
516
504
500
508
522
536
546
552
544
532
516
506
502
508
520
534
548
552
544
532
516
506
502
508
518
536
548
552
546
532
518
504
502
508
520
536
548
550
546
532
518
506
502
510
522
536
548
552
544
534
518
506
502
510
522
536
550
552
546
534
518
506
502
510
522
538
548
552
548
534
518
508
504
508
522
538
548
552
546
534
518
506
504
510
522
536
550
554
546
536
518
508
504
510
522
538
550
552
546
532
518
506
504
510
522
538
550
552
548
534
518
506
504
510
522
538
550
552
546
534
518
506
504
508
520
538
550
554
546
534
518
508
504
510
524
538
548
552
546
534
518
508
504
510
522
538
550
554
548
534
518
508
506
510
524
538
550
554
546
534
518
508
504
512
522
538
550
554
546
534
518
508
504
510
524
538
550
552
546
534
518
506
504
510
524
540
550
554
546
534
518
508
502
512
524
538
550
554
546
534
518
508
504
512
526
540
550
554
546
534
518
508
504
512
524
538
550
554
548
534
518
508
504
512
524
538
550
554
546
534
520
508
504
512
524
538
550
552
548
534
518
508
504
512
524
540
550
554
550
536
522
514
512
518
532
550
560
564
558
546
530
518
516
522
534
550
560
562
554
542
526
514
512
516
530
546
556
558
550
536
522
510
506
514
526
540
550
554
546
532
518
506
504
510
522
538
548
550
542
532
514
504
502
510
520
536
546
550
542
532
514
504
502
508
522
538
548
550
544
530
516
504
500
510
522
538
550
550
544
532
524
532
560
600
646
688
712
710
686
650
606
566
538
524
518
520
520
514
504
486
470
458
456
464
478
496
508
514
508
498
484
476
476
486
500
518
532
532
528
516
502
492
492
500
516
532
546
546
540
530
514
504
502
512
526
540
552
556
548
536
520
512
510
518
534
550
558
562
556
542
528
518
516
522
536
552
564
566
558
546
530
520
518
526
540
556
568
570
562
550
534
524
522
528
542
558
566
568
562
548
532
522
520
526
540
554
564
566
558
544
528
518
516
522
536
550
562
562
554
540
524
514
510
520
532
546
556
558
548
536
520
508
506
514
528
542
550
552
546
530
516
504
502
510
524
538
548
550
542
528
512
502
500
506
520
536
546
546
538
524
510
498
498
504
518
534
542
546
536
524
508
498
496
504
516
532
542
542
536
522
506
496
494
502
516
532
540
542
534
522
506
496
494
502
516
532
542
542
536
522
506
498
496
504
518
532
542
544
536
524
508
498
496
506
518
534
544
546
538
524
510
498
498
506
520
536
546
548
540
524
510
500
500
506
522
536
546
548
538
526
512
502
500
506
522
538
546
548
540
526
512
502
500
508
522
538
548
548
540
526
512
502
500
510
524
540
548
550
542
528
512
502
502
510
524
538
548
548
542
528
512
504
502
508
526
538
548
550
542
530
514
504
502
510
526
540
550
550
542
528
514
504
504
510
526
540
550
552
542
530
514
504
504
510
526
540
550
554
542
528
514
504
504
514
526
540
550
550
542
528
514
504
504
512
528
540
550
552
544
528
516
504
504
512
528
542
550
552
544
530
514
506
504
514
526
542
552
552
542
530
514
504
504
512
526
542
550
554
544
530
514
506
506
514
526
542
552
552
544
530
514
504
504
514
528
542
552
554
544
530
514
506
506
514
528
542
550
552
542
528
516
506
506
514
528
542
552
554
544
530
514
506
504
514
528
542
552
552
544
530
514
506
506
514
528
542
552
552
542
528
516
506
504
514
530
544
550
552
542
528
516
506
504
510
528
542
552
552
542
530
514
506
506
514
528
542
550
552
544
530
514
506
506
518
528
544
552
554
542
528
514
506
506
514
528
542
552
552
542
528
514
506
506
512
528
544
552
552
544
530
514
506
504
514
528
544
552
552
542
528
514
506
504
514
528
542
552
552
542
528
514
506
506
514
530
546
554
554
548
534
522
514
514
524
540
556
564
564
554
540
526
516
516
524
540
552
562
560
550
536
520
512
512
522
534
548
556
556
544
532
516
506
506
516
530
544
552
550
540
528
512
504
504
512
528
542
550
550
540
526
510
502
504
512
526
542
550
550
538
524
510
502
504
510
528
540
550
548
540
526
510
504
504
514
528
542
552
552
556
566
582
608
640
674
692
696
682
656
618
576
538
508
492
490
494
502
506
504
494
480
464
458
460
476
486
506
516
518
510
498
486
480
480
494
508
524
534
536
526
514
500
494
496
508
524
538
548
548
540
526
512
504
506
518
532
548
556
556
548
532
520
512
514
524
540
552
562
560
552
540
524
516
518
528
544
556
566
566
556
542
528
520
520
532
546
562
570
568
560
544
530
522
524
532
546
562
570
566
556
542
528
520
520
528
544
558
564
564
552
538
524
514
516
526
540
552
562
560
548
534
518
512
512
520
534
548
556
556
544
528
514
506
510
516
530
544
552
550
540
524
510
502
502
514
526
542
548
548
536
522
506
500
500
510
526
538
546
544
534
518
504
498
498
508
522
536
544
542
532
518
504
496
498
506
522
536
544
542
530
516
502
494
498
508
522
536
542
540
534
516
502
496
496
506
522
536
544
544
532
516
502
496
498
510
522
538
544
544
534
518
504
496
498
508
524
538
546
544
534
520
504
498
498
512
526
540
546
546
534
520
506
498
500
512
526
542
548
546
536
522
506
500
502
516
526
540
548
546
536
522
508
500
502
512
528
542
548
548
536
522
508
502
504
514
528
544
550
548
536
522
508
502
504
514
530
542
550
550
538
522
510
502
504
514
530
544
550
548
538
522
508
504
504
516
530
544
552
548
540
524
510
504
504
516
530
544
552
548
536
524
510
504
504
516
530
544
552
550
538
524
510
504
506
516
532
544
552
550
536
524
510
502
506
516
532
546
554
548
538
524
510
504
506
518
532
546
552
550
538
524
510
504
508
518
532
546
554
550
538
524
510
504
506
518
532
546
554
552
538
524
512
504
506
518
532
546
552
550
538
524
510
504
508
518
534
548
552
550
538
522
510
504
508
518
534
546
554
550
538
524
510
504
506
518
534
546
552
550
538
524
510
504
508
520
532
546
552
552
538
524
510
504
508
518
534
548
554
550
538
522
510
504
506
520
534
548
552
552
538
524
510
504
510
518
532
548
554
550
538
524
510
504
508
520
534
548
552
550
538
524
510
504
508
520
536
548
554
548
540
522
510
504
508
518
534
550
554
550
538
524
508
504
508
520
536
548
554
550
540
522
510
504
508
520
536
548
554
550
538
522
510
504
510
518
536
548
554
550
538
524
510
506
510
522
536
552
558
556
546
532
520
516
518
532
546
560
564
560
548
532
520
514
518
528
544
556
560
558
544
528
516
510
514
524
538
552
556
552
538
524
510
506
508
520
534
546
554
548
534
520
508
502
506
518
532
544
550
548
534
520
506
502
506
518
532
546
550
548
534
520
506
502
506
518
534
546
552
548
534
520
508
502
506
518
532
552
576
600
622
640
654
664
666
662
654
640
616
586
552
516
490
474
472
476
488
500
504
502
490
474
464
462
468
484
500
516
524
520
510
496
486
482
488
502
518
534
538
536
526
512
500
496
502
516
532
544
552
546
536
522
510
506
512
524
540
554
560
554
544
528
516
512
518
530
546
558
564
560
548
532
522
516
522
534
550
562
568
564
548
536
524
520
526
538
554
566
572
566
552
536
526
520
526
540
554
564
568
564
550
534
522
518
522
534
550
560
566
558
548
530
518
514
518
530
546
556
562
556
542
526
514
508
514
526
540
552
556
550
538
522
508
504
508
522
538
548
552
546
534
518
504
502
506
516
534
544
548
544
530
514
502
498
504
516
530
542
546
540
528
512
500
496
500
514
530
540
544
540
526
510
500
494
502
514
528
540
542
538
526
510
498
494
500
512
528
540
544
536
524
510
498
494
500
514
528
540
544
538
524
510
498
496
500
516
530
540
546
540
528
512
500
496
502
514
532
544
546
542
530
512
502
498
504
516
532
544
548
542
528
514
502
498
504
518
534
544
548
540
528
514
502
500
506
520
534
546
548
542
530
514
504
500
506
520
536
546
550
542
530
514
504
500
506
520
536
546
550
544
530
516
504
502
508
520
536
548
550
544
530
516
504
502
508
520
536
548
550
544
532
518
504
502
510
522
538
548
554
544
532
516
506
502
510
522
538
548
552
546
532
516
506
502
510
522
538
548
552
546
532
516
506
502
510
522
538
550
552
544
532
516
506
502
510
524
540
550
552
546
532
516
506
504
510
522
540
548
552
546
532
516
506
504
512
524
540
550
552
546
532
516
506
504
510
526
540
550
552
546
532
518
506
504
512
524
540
550
554
546
532
516
506
504
510
524
540
550
552
548
532
516
506
504
512
524
540
550
554
546
532
516
506
504
512
526
544
552
552
546
532
516
506
504
512
526
540
550
554
546
530
516
506
504
512
526
540
552
552
546
532
518
506
504
512
524
540
552
554
546
532
516
506
506
512
526
542
550
552
544
532
518
506
504
512
526
540
552
554
546
534
516
506
506
512
526
542
552
554
544
530
516
506
504
512
526
542
550
552
546
532
516
506
504
512
526
542
552
552
546
530
516
506
504
514
526
542
552
554
544
532
518
506
506
514
526
542
552
554
544
532
516
508
506
516
532
550
558
560
554
540
526
516
516
524
538
554
562
564
556
540
526
514
514
522
536
550
558
560
548
536
520
510
510
516
530
544
552
554
550
532
516
504
506
512
526
540
550
550
540
528
512
504
502
512
526
540
548
550
540
526
512
504
504
512
526
542
550
552
540
528
512
504
502
512
526
540
548
550
542
528
512
502
504
512
540
578
618
654
676
684
676
658
638
622
606
594
578
556
532
506
480
466
460
466
480
496
504
506
496
484
472
466
468
480
498
514
524
526
520
506
494
486
486
496
514
528
540
540
532
520
508
500
500
512
526
540
552
554
544
530
516
508
510
520
534
548
558
560
550
536
522
514
516
524
540
554
564
564
554
542
526
518
520
528
544
560
566
566
558
544
530
522
522
534
546
562
570
568
558
544
530
522
522
532
544
560
566
566
556
542
526
518
518
528
542
556
562
562
552
536
522
514
516
524
538
550
558
558
548
532
518
508
510
518
532
546
554
554
544
528
514
504
504
514
528
542
552
548
540
524
510
502
502
510
526
540
546
548
538
522
506
498
498
508
524
538
544
544
534
518
504
496
496
506
522
536
544
542
532
518
504
496
496
506
520
534
542
542
530
518
502
494
496
506
522
536
544
542
530
518
502
496
496
506
520
536
544
542
532
518
504
496
498
510
522
536
544
544
532
518
504
498
498
508
526
538
548
544
534
520
504
500
500
510
524
540
546
546
534
520
506
498
500
512
526
540
550
548
536
522
508
500
502
512
528
542
548
546
536
522
508
500
502
510
528
542
548
548
538
524
508
502
504
514
528
542
550
550
538
522
510
502
504
514
530
544
550
550
538
522
510
502
506
514
530
544
550
548
538
524
508
502
506
516
530
544
552
548
538
524
510
502
504
516
530
544
552
550
538
524
510
502
504
516
530
546
552
548
538
524
510
504
506
518
532
546
552
550
538
524
510
502
506
518
532
546
552
550
538
524
510
504
506
516
532
546
552
550
538
524
510
504
508
518
532
546
552
550
538
522
510
504
504
520
532
546
552
550
538
524
510
504
510
518
534
546
552
550
538
524
510
504
508
518
534
546
554
550
538
522
512
504
506
516
534
548
552
550
538
524
510
504
506
520
534
548
554
550
538
524
510
504
506
520
534
548
554
550
538
522
510
504
506
520
534
548
552
550
538
522
510
504
508
520
536
548
554
550
538
522
510
504
508
520
536
548
554
550
538
524
510
504
508
520
534
548
554
548
538
524
510
504
508
520
534
550
554
550
538
522
510
504
508
520
536
548
554
548
538
522
510
504
508
520
534
548
554
548
538
522
510
504
508
520
536
550
554
550
536
522
510
504
512
520
536
548
554
550
540
524
512
508
514
528
544
556
564
558
548
532
520
516
520
532
546
560
564
558
546
530
516
512
516
530
542
556
558
556
542
526
514
506
512
520
538
550
554
548
536
520
508
504
506
520
534
546
552
546
534
518
506
500
508
518
534
546
550
546
534
518
508
502
506
518
536
546
550
546
534
520
506
502
506
520
536
548
552
546
534
518
506
506
530
570
618
664
696
708
696
666
630
598
574
560
554
548
536
518
498
478
462
456
462
474
492
504
510
506
494
482
472
472
476
494
510
524
530
526
516
502
490
486
494
510
526
540
544
540
530
514
504
500
508
520
538
550
554
550
540
522
512
510
516
528
544
556
560
556
544
530
518
514
520
534
550
562
566
560
548
534
522
518
524
536
554
564
568
562
552
536
524
522
528
540
554
566
570
564
550
536
524
518
526
538
552
564
568
562
548
532
520
516
522
534
548
560
564
558
544
526
516
512
518
530
546
556
558
552
538
522
510
506
514
526
542
554
554
546
534
518
506
504
510
518
536
548
550
544
530
516
504
500
506
520
532
544
548
542
528
512
500
496
504
516
532
542
544
538
524
510
500
496
502
514
530
542
544
538
526
508
496
494
502
514
528
540
544
536
524
508
498
494
500
512
528
540
544
536
524
508
498
494
502
514
532
542
544
538
524
508
498
496
502
518
532
542
544
538
526
510
500
498
504
518
534
544
546
540
528
510
500
498
506
520
534
546
548
540
528
512
500
500
506
520
536
546
548
542
526
512
502
500
508
520
536
548
548
540
528
514
504
502
510
522
536
546
550
542
528
514
502
504
510
522
538
548
550
542
530
514
504
502
510
522
538
548
550
542
528
514
504
502
510
524
540
548
552
544
530
514
504
504
512
524
540
548
552
544
530
514
506
504
512
526
540
550
552
542
530
514
504
504
512
524
540
550
552
542
528
514
506
502
512
526
540
550
552
542
530
514
506
504
512
528
540
550
552
544
530
514
506
504
512
524
542
550
552
544
532
514
504
504
512
526
542
552
552
544
530
514
506
504
512
526
542
550
552
544
528
514
506
504
514
526
542
550
552
544
530
514
506
504
514
528
544
550
552
544
530
516
506
504
514
528
542
552
552
542
530
516
506
504
514
528
542
550
552
542
530
514
506
504
516
528
544
554
554
542
530
514
506
506
514
528
544
552
552
544
528
514
506
506
514
528
544
552
552
544
528
514
504
504
514
528
542
552
552
542
528
514
506
504
514
528
542
552
554
542
528
514
506
504
514
528
544
552
552
542
530
514
506
506
514
530
544
554
552
544
530
514
506
506
516
528
544
552
552
544
528
514
506
504
516
530
544
552
552
544
528
514
504
506
516
530
544
554
554
544
532
518
510
512
524
540
554
564
564
554
538
526
516
518
528
540
554
562
562
550
536
520
512
512
522
536
550
556
556
548
530
516
506
508
518
532
546
552
552
542
526
512
504
506
514
528
544
550
550
540
524
510
502
502
514
528
542
550
550
538
526
510
502
504
514
528
542
550
550
540
524
512
502
506
514
528
542
550
550
538
526
522
536
568
614
662
698
714
706
676
636
594
558
536
524
520
522
520
512
496
478
464
456
458
468
486
500
512
510
504
492
480
474
478
492
506
522
530
532
524
510
496
490
492
506
522
536
546
544
536
522
508
502
506
516
532
546
554
554
544
530
518
510
514
524
540
554
560
560
550
536
522
516
518
528
544
558
566
564
552
540
526
518
522
532
546
562
568
568
558
542
528
522
524
536
548
562
570
566
556
540
526
520
522
532
548
560
566
564
554
536
524
518
518
526
542
556
562
560
548
532
518
512
514
524
538
552
558
554
542
528
514
506
510
520
534
548
554
552
538
524
510
502
504
514
530
544
550
544
536
520
506
500
504
512
526
540
546
544
532
518
504
496
500
512
526
540
546
542
530
514
502
496
496
510
524
536
542
540
530
514
502
494
498
508
524
538
544
540
530
514
502
494
498
510
524
538
544
540
530
514
502
494
498
510
526
538
544
540
532
516
502
496
502
512
528
542
546
542
530
516
502
498
500
514
528
542
548
544
532
516
504
498
502
514
528
542
546
546
532
518
504
498
504
514
532
544
550
544
534
518
506
500
504
514
532
544
550
544
534
518
506
500
504
516
530
544
550
546
536
518
506
500
504
518
532
544
550
546
536
520
508
502
504
518
532
546
550
548
534
520
508
502
506
518
534
546
552
546
536
520
508
502
506
518
534
546
552
548
534
520
508
504
506
518
534
548
552
546
536
520
508
504
508
518
536
548
552
548
536
522
506
504
508
518
536
548
552
548
536
520
508
502
508
520
536
548
552
548
536
520
508
504
508
522
534
548
