490
501
507
503
491
479
473
476
486
498
506
505
497
484
474
473
481
494
504
507
500
488
477
473
478
490
501
506
503
493
480
473
475
485
498
506
505
497
484
474
473
480
492
503
507
502
490
478
473
477
489
500
507
504
493
481
474
475
484
497
505
506
498
485
475
473
480
493
505
508
502
489
478
473
478
488
500
507
505
495
482
473
475
485
498
506
507
499
486
476
473
480
492
504
507
501
490
479
474
477
488
500
507
504
494
481
473
474
484
496
505
506
499
486
476
474
480
492
503
507
502
491
479
473
476
488
501
508
507
498
487
480
483
493
507
517
518
511
498
488
484
490
501
512
516
511
500
488
481
482
492
504
511
509
499
486
476
476
484
496
505
506
499
487
475
471
477
489
501
505
501
489
477
470
473
484
496
504
502
493
481
472
471
479
492
503
505
497
485
475
471
476
488
500
505
501
494
499
522
563
610
647
658
641
604
559
518
490
477
474
473
468
457
443
431
428
435
449
462
470
469
461
452
447
451
463
477
487
489
482
470
463
464
473
487
498
503
497
486
476
473
478
491
504
511
508
498
486
479
481
492
506
515
516
507
495
486
485
492
505
516
520
515
503
491
487
492
504
517
523
520
510
498
490
492
502
514
522
521
513
500
490
488
494
505
516
520
513
501
489
484
488
499
510
516
512
501
488
480
481
489
502
510
510
501
488
478
475
482
493
503
506
501
489
477
471
475
486
497
503
501
491
478
469
469
478
490
499
500
492
480
469
465
471
484
495
499
493
482
470
465
468
479
491
499
497
486
473
465
465
474
486
495
497
490
478
467
465
471
483
493
498
494
482
470
464
467
478
491
499
497
487
475
466
466
475
488
498
499
492
481
470
467
472
484
496
501
496
485
473
467
471
481
493
501
500
491
478
469
468
477
490
500
503
496
484
473
469
474
486
497
503
499
489
476
469
472
482
495
503
502
492
480
472
471
479
491
501
503
497
486
474
469
475
487
499
505
501
489
477
471
474
484
496
504
504
496
483
473
471
478
491
502
505
499
488
476
471
476
488
501
507
503
491
478
471
474
484
496
504
504
496
484
474
472
480
493
503
506
500
488
477
472
477
488
500
506
503
493
480
472
473
483
496
505
505
497
484
474
473
481
493
503
506
501
489
477
472
476
488
500
506
503
493
480
473
475
485
496
504
505
497
485
475
473
479
492
503
507
502
490
478
473
477
488
500
506
503
494
481
473
474
483
495
504
505
497
485
475
473
480
492
503
508
503
492
480
474
477
488
499
507
506
496
483
474
474
483
495
505
506
499
486
476
474
480
492
502
506
501
490
478
473
477
488
500
507
505
495
482
474
475
484
495
505
507
500
488
477
473
478
490
502
507
503
491
479
473
477
487
499
507
507
498
485
475
474
483
495
505
506
499
488
478
477
484
496
508
515
512
503
492
485
488
497
510
518
516
506
493
484
483
490
502
511
512
505
493
481
477
481
493
504
509
504
492
480
473
474
484
497
506
505
495
482
472
471
478
491
502
505
498
486
475
470
475
487
499
505
501
490
478
471
473
482
495
504
504
495
482
472
472
486
518
561
602
630
639
628
604
579
559
540
519
495
469
447
434
432
439
452
461
463
457
447
439
440
450
465
478
484
480
469
460
457
463
476
489
497
495
486
474
468
472
483
497
505
506
499
488
478
478
487
500
511
516
510
498
486
482
487
500
512
518
516
507
494
486
488
498
512
521
520
513
501
492
490
496
508
519
523
517
505
494
488
492
502
514
521
518
508
495
486
487
496
508
517
517
508
496
484
481
487
498
509
514
508
495
482
476
479
490
502
509
506
495
482
474
475
483
494
503
504
496
483
472
469
475
487
499
503
497
486
474
466
468
479
492
499
497
488
476
467
467
475
487
497
499
491
478
467
464
471
483
493
497
493
482
471
465
467
478
490
497
494
484
472
465
465
474
486
495
498
491
479
468
464
470
482
494
499
495
484
472
465
468
479
492
500
498
489
476
467
467
476
489
499
501
494
482
471
468
475
486
497
503
499
487
475
468
470
481
494
503
501
491
479
470
471
480
492
501
502
495
483
473
469
476
488
500
506
502
490
477
470
473
483
495
503
502
494
482
472
471
478
491
502
505
497
486
475
470
475
488
500
505
501
491
479
472
473
483
496
504
504
495
483
474
473
480
492
502
504
498
487
477
472
477
488
500
506
503
492
480
473
474
484
497
505
504
496
484
474
472
479
492
503
506
499
488
477
472
477
489
501
507
503
493
480
473
475
485
497
505
505
497
484
474
473
480
493
503
507
502
490
477
473
478
489
500
506
503
493
482
474
476
485
497
505
506
499
486
475
473
480
492
503
507
501
488
476
472
477
489
500
506
504
494
483
474
475
484
497
506
507
498
484
474
473
480
493
503
506
501
489
478
474
479
489
500
507
504
494
482
474
474
483
496
505
506
499
486
476
473
479
492
503
507
502
491
479
474
478
488
500
506
504
494
483
474
475
484
496
506
507
499
487
476
473
480
492
503
507
503
491
479
473
476
488
501
509
509
500
489
482
485
495
507
517
519
511
498
486
483
489
501
511
516
511
499
487
480
482
491
504
511
509
499
486
477
476
484
496
506
506
498
485
474
471
478
489
500
504
499
488
476
470
473
484
496
504
502
493
481
472
472
481
493
503
505
498
486
475
471
477
489
500
506
509
521
544
576
611
638
646
632
600
558
516
482
462
457
459
462
462
454
442
432
430
439
453
467
474
473
466
455
449
453
466
481
490
491
483
473
466
467
476
490
500
504
499
488
478
474
481
493
506
512
509
498
486
480
483
494
508
516
516
507
495
487
487
495
507
517
520
514
502
491
488
495
507
519
524
520
509
497
490
491
501
514
523
521
511
498
488
487
495
507
517
520
513
500
488
484
488
498
510
515
511
500
487
479
481
491
503
510
509
500
486
476
475
482
494
504
507
500
488
476
471
475
486
497
503
499
487
475
468
470
479
491
500
501
491
478
468
466
473
485
495
499
493
481
469
465
470
480
491
497
494
484
472
464
466
475
487
496
496
488
475
466
464
471
484
495
499
493
480
468
464
469
481
493
499
495
485
473
465
467
476
489
499
499
490
478
469
466
473
485
497
501
495
484
472
467
471
482
494
501
499
489
477
468
469
479
492
502
502
494
481
471
468
474
488
499
503
497
486
474
469
473
484
496
504
502
492
479
471
472
481
494
503
504
496
483
473
471
478
490
501
505
500
488
477
471
474
485
497
505
502
492
479
471
473
483
495
503
505
498
486
475
471
477
490
502
506
502
490
477
471
476
488
500
506
504
494
481
472
473
482
495
504
505
497
485
475
472
478
490
502
507
502
490
478
473
476
486
498
505
503
493
482
473
474
483
495
505
506
498
485
475
472
478
490
501
506
502
491
479
473
477
487
499
506
505
495
483
474
473
481
494
504
507
500
488
476
473
479
491
503
508
503
491
479
473
476
486
499
507
505
495
483
474
474
483
495
505
506
499
487
477
473
478
490
502
507
503
492
480
473
475
486
499
507
506
496
484
474
473
481
494
504
506
499
487
477
473
478
490
502
507
503
493
480
473
476
486
499
507
506
496
484
475
474
482
494
505
507
501
489
477
473
478
490
502
507
503
493
481
474
475
486
499
507
506
497
484
476
477
487
501
513
516
511
499
488
484
490
501
512
517
512
501
488
481
482
492
505
513
512
503
490
479
477
484
496
506
508
501
489
477
472
477
488
500
505
501
490
478
471
473
482
495
503
503
494
481
472
471
478
491
502
505
499
486
475
470
476
488
500
505
501
491
478
472
485
521
570
617
647
650
629
594
561
536
520
507
492
473
452
435
427
431
444
457
465
464
456
446
442
446
458
473
484
486
478
467
459
460
469
482
494
499
495
484
473
470
475
488
500
507
506
496
485
479
480
490
503
513
515
507
494
485
484
492
505
515
518
513
503
492
486
491
502
515
522
520
510
498
490
491
500
513
522
523
514
502
492
488
494
507
518
521
515
503
490
484
488
499
511
517
514
503
490
481
482
491
504
512
512
503
490
479
476
482
494
505
508
503
490
478
472
475
486
498
505
501
490
477
469
470
479
491
500
501
492
479
469
466
472
484
495
499
495
483
471
465
469
480
492
499
496
486
473
464
465
474
487
496
497
489
477
466
464
470
482
493
498
493
481
469
463
467
479
492
499
496
486
474
466
467
475
488
498
499
491
479
468
465
472
484
495
499
495
484
472
467
471
482
494
501
499
489
477
468
469
478
490
499
501
494
481
471
468
475
487
499
503
498
487
475
469
473
484
497
504
501
492
479
471
471
480
492
501
503
496
484
473
470
477
489
501
505
500
489
477
470
474
485
497
505
503
494
481
472
473
481
493
502
504
498
485
475
471
478
490
501
506
501
490
478
471
474
484
497
506
504
494
482
473
472
480
493
503
505
498
486
476
472
479
491
502
507
502
490
478
473
476
486
499
506
505
495
482
473
473
482
495
505
506
499
486
476
473
479
490
501
506
503
492
480
474
476
485
498
506
504
495
483
475
475
482
493
503
506
500
488
477
473
479
491
502
507
503
491
479
473
475
485
498
506
505
496
483
473
473
481
494
504
507
500
488
478
473
478
489
501
507
504
492
480
473
476
486
498
506
505
497
484
474
473
481
494
504
506
498
486
477
474
479
490
501
506
503
493
480
473
475
485
498
507
506
496
483
474
474
482
494
505
508
500
488
477
473
478
490
501
507
504
493
480
473
474
485
498
506
506
497
484
475
474
482
495
507
511
506
496
486
483
488
500
512
518
515
504
491
483
484
494
506
514
513
504
491
481
479
487
498
508
510
503
491
479
474
478
489
501
507
504
492
479
472
473
483
495
503
503
495
482
473
471
478
490
501
505
499
486
475
471
476
487
498
505
502
491
478
471
473
483
495
507
521
541
565
592
617
633
634
618
588
550
511
477
456
448
451
458
462
459
449
437
432
435
448
464
475
477
470
460
452
452
462
476
489
494
490
480
470
467
473
486
499
505
503
493
482
475
477
487
501
511
512
505
492
483
483
491
502
513
518
512
500
490
485
489
501
514
521
518
507
496
489
491
500
513
522
523
514
501
491
489
496
508
519
523
516
504
492
486
490
501
513
518
514
503
491
484
485
493
504
513
514
505
492
481
479
485
496
506
509
503
491
480
475
478
488
500
507
504
493
479
471
471
480
493
502
502
493
481
471
468
475
487
497
501
495
482
470
465
470
481
492
498
496
486
473
464
466
475
488
497
497
489
477
467
464
470
482
493
497
492
480
468
463
467
479
490
497
496
487
473
464
466
475
488
497
497
489
477
468
465
473
485
496
500
494
482
471
466
471
482
495
501
498
488
476
468
469
478
491
501
501
493
480
470
468
476
488
499
503
497
486
474
469
472
483
496
503
501
491
479
470
471
480
493
501
502
495
483
473
470
477
489
500
504
499
488
476
470
473
484
497
504
502
493
481
472
472
481
494
503
504
497
484
474
471
478
490
500
505
502
491
478
471
474
485
498
506
504
494
482
473
473
481
493
503
504
497
485
475
471
478
490
501
506
502
491
479
473
476
486
498
506
504
494
481
473
473
482
495
504
505
498
486
476
473
478
490
502
506
502
491
479
472
475
486
499
507
505
494
482
474
474
483
495
505
506
499
486
476
473
479
491
503
507
503
491
479
473
476
487
499
506
505
495
483
474
474
482
495
505
507
499
486
476
473
480
492
503
508
503
492
480
473
476
486
499
506
505
495
483
474
474
483
495
505
506
499
487
476
473
480
492
503
507
503
493
480
473
475
486
499
507
506
496
482
474
475
484
496
505
506
499
487
477
474
479
491
503
508
503
491
479
472
475
486
499
507
505
496
483
475
474
483
495
506
508
502
490
480
478
486
498
510
516
512
501
489
484
487
497
509
517
516
505
492
482
481
488
501
511
512
504
491
479
475
480
492
503
508
503
491
479
472
475
485
497
504
503
493
481
472
471
480
493
503
504
497
484
474
471
476
488
499
505
501
489
477
470
474
484
496
503
502
493
481
477
492
531
583
629
654
650
622
584
548
523
508
498
486
471
453
437
428
430
441
454
464
465
458
449
443
445
455
470
483
488
483
472
462
460
467
480
493
500
497
487
476
471
474
486
499
508
509
501
489
480
479
488
501
513
515
508
497
487
484
490
501
513
519
516
507
494
486
489
500
514
522
521
512
500
491
491
497
510
520
523
516
503
492
488
494
505
516
521
516
505
492
484
487
497
509
517
516
505
492
482
481
488
500
510
511
503
491
480
475
480
491
503
508
504
492
480
472
474
484
496
504
502
493
480
470
469
478
490
499
501
494
482
471
466
471
483
495
499
495
484
472
465
467
476
489
497
497
488
476
467
465
472
484
494
497
491
480
468
464
468
480
491
497
494
484
471
464
466
476
488
497
497
488
475
466
465
473
485
496
500
493
480
469
465
470
482
495
501
498
487
474
467
469
478
491
500
500
492
479
470
469
477
489
499
502
496
484
473
469
474
485
497
503
500
489
477
469
470
480
493
502
502
494
482
472
471
478
491
501
504
497
484
473
470
475
486
498
505
501
491
478
471
472
482
495
504
504
495
482
472
471
479
491
502
505
500
488
476
471
477
489
501
506
502
491
479
473
475
484
497
505
504
496
484
474
473
480
493
503
506
499
488
477
472
477
488
499
506
503
493
480
473
474
484
496
505
506
497
484
474
473
480
493
503
506
500
488
477
472
477
487
499
506
504
493
480
473
474
484
497
506
506
497
484
475
474
480
492
503
506
501
489
478
473
478
489
501
507
505
494
482
474
475
484
497
506
506
498
485
475
474
482
494
504
506
500
488
477
472
477
489
501
506
503
493
481
474
475
485
498
506
506
498
485
475
474
482
494
504
507
501
490
478
473
477
489
501
507
504
493
480
473
476
486
497
505
506
497
485
475
473
480
493
503
507
501
489
477
472
476
488
501
508
505
493
481
474
475
485
498
507
507
498
485
475
474
481
494
506
512
507
497
486
483
488
500
513
519
516
505
492
484
485
494
506
515
514
505
492
481
478
485
497
507
510
503
491
479
474
478
488
499
505
502
492
479
471
473
483
495
503
503
495
483
473
470
477
489
501
505
499
487
476
471
475
486
498
505
502
492
479
471
472
482
495
510
529
554
581
606
624
630
624
604
575
540
502
469
449
443
448
458
462
459
449
438
432
437
449
464
475
477
470
460
453
453
463
477
488
493
489
479
469
465
472
484
497
504
503
493
482
475
478
488
501
511
512
505
493
483
482
490
503
514
518
513
501
490
485
490
502
514
521
518
509
496
488
490
500
514
523
523
514
501
491
489
497
509
519
522
515
503
492
486
490
501
513
519
515
504
492
483
483
492
504
513
512
504
491
481
478
484
496
506
509
502
490
478
473
478
488
499
505
503
493
479
471
473
482
493
501
501
493
480
470
467
474
486
497
501
495
483
471
465
469
480
492
498
495
486
474
465
465
474
487
496
496
488
475
466
464
471
483
494
498
492
480
468
463
468
480
493
499
495
486
474
465
466
475
488
497
497
489
476
467
465
473
485
496
500
495
483
471
465
470
482
495
501
498
488
476
468
469
478
491
501
501
493
480
471
468
475
487
499
503
498
486
474
469
473
484
497
503
500
490
478
470
471
480
493
503
504
495
482
472
470
477
489
501
505
500
488
475
470
475
486
498
504
501
491
479
471
472
482
494
503
503
495
484
474
472
479
492
502
505
500
488
477
471
476
488
499
505
503
493
481
472
473
482
495
505
506
497
484
474
472
479
492
502
506
501
489
477
471
475
487
500
507
504
493
480
473
474
484
497
506
506
497
484
474
473
480
493
503
507
502
490
477
472
477
487
499
506
504
493
480
473
474
484
496
505
506
497
484
474
473
480
492
504
508
502
490
478
473
477
488
500
507
504
494
482
474
475
484
496
505
506
498
485
475
473
480
492
503
506
501
490
478
473
477
488
500
506
504
494
482
473
474
483
496
505
507
500
486
475
473
480
492
503
507
502
489
477
473
478
489
500
507
505
495
482
474
475
485
497
506
506
498
486
477
474
480
492
503
506
501
490
478
473
478
488
500
507
504
494
482
474
475
484
497
505
506
499
488
479
479
488
501
513
517
512
500
489
484
488
498
510
517
514
502
489
481
482
490
502
511
512
503
490
480
477
482
494
505
508
502
490
478
473
476
486
498
505
502
492
478
470
471
481
494
502
503
496
483
473
470
477
489
501
505
499
488
476
471
475
485
498
505
502
491
480
481
505
549
601
642
659
645
611
570
536
513
500
491
481
466
448
434
428
432
444
457
466
466
459
449
444
447
459
474
485
487
481
470
461
461
469
482
495
501
496
485
474
470
475
487
501
508
507
497
486
479
481
491
503
513
515
508
496
486
484
492
504
515
519
514
503
491
486
491
502
514
522
520
511
498
490
491
501
513
521
522
514
500
490
488
494
505
516
520
515
503
490
484
488
498
510
517
513
501
489
481
482
491
503
511
511
502
489
478
475
482
494
505
508
501
488
476
471
475
485
497
504
501
490
477
469
470
480
492
500
501
493
480
469
466
472
484
495
500
494
481
469
464
469
480
492
499
496
485
472
464
466
475
487
496
497
488
475
465
463
470
483
494
497
491
480
468
464
468
479
491
497
494
484
472
465
467
476
489
499
499
490
478
469
466
473
485
497
501
495
482
471
466
471
482
494
501
499
489
477
468
470
479
492
501
502
493
480
470
469
476
489
500
503
497
485
473
469
474
486
497
503
500
490
478
470
471
480
493
502
502
494
482
473
471
478
490
501
504
499
488
476
471
475
485
497
504
503
493
480
471
472
482
495
505
505
497
485
475
473
479
490
501
506
501
488
477
472
477
488
499
505
503
493
480
472
473
483
496
504
504
496
484
474
472
479
491
503
507
501
489
477
472
477
488
499
506
503
493
480
472
473
482
495
504
505
497
484
474
473
480
492
503
506
501
490
478
473
476
488
502
508
504
493
481
474
474
483
496
505
505
497
484
474
473
480
493
503
506
500
489
478
473
477
489
501
507
504
493
481
474
475
485
498
506
506
498
486
475
473
480
493
503
506
501
490
478
473
477
488
500
507
504
493
480
473
474
484
497
506
506
497
485
476
475
482
494
504
507
502
490
478
472
477
489
501
507
503
493
481
474
476
485
497
505
505
497
484
474
473
480
493
504
507
501
490
479
474
478
488
500
507
504
494
481
473
475
486
501
510
511
504
493
485
484
492
505
516
519
513
500
488
484
488
498
509
514
510
500
488
480
480
489
501
509
508
499
486
476
475
482
493
503
506
501
489
477
471
476
487
498
503
501
491
479
470
471
482
495
503
503
495
483
473
471
478
491
501
504
499
488
476
472
475
486
499
517
539
565
592
615
628
628
616
594
562
524
488
460
445
443
451
459
462
456
445
435
432
440
454
468
477
477
468
458
452
455
467
482
493
494
487
475
467
467
476
489
501
505
500
490
479
475
481
493
505
512
509
499
488
482
483
493
507
516
517
508
496
487
485
493
506
518
522
516
504
492
488
493
505
518
524
520
508
495
488
490
500
512
520
520
511
499
489
487
494
506
515
518
512
499
487
481
485
497
509
516
513
501
488
479
480
489
501
509
508
499
486
476
474
481
493
503
505
498
486
475
470
475
486
496
502
499
489
476
467
468
478
491
499
498
489
477
468
467
474
486
495
498
492
480
469
464
469
480
492
498
494
484
471
464
466
475
487
496
496
488
475
466
464
473
485
495
498
492
480
469
464
469
481
493
499
495
485
473
467
469
478
490
498
499
491
478
469
467
474
487
498
501
495
483
472
468
473
485
496
502
498
488
476
469
472
481
493
501
502
493
480
470
469
477
490
500
503
497
486
474
469
473
485
498
504
501
490
477
470
472
482
495
504
503
494
481
472
471
479
491
502
505
498
486
475
471
476
488
499
504
501
491
478
470
472
483
496
504
504
496
484
474
473
480
492
502
505
499
487
475
471
477
489
500
506
502
491
479
472
474
484
497
505
505
496
483
474
473
480
493
503
506
499
488
477
472
477
489
501
507
503
492
479
472
474
484
497
505
505
497
484
474
473
481
493
503
506
499
487
477
473
478
490
501
507
504
493
480
473
476
486
498
506
505
496
483
474
473
482
494
504
505
499
487
477
473
478
490
502
507
503
493
480
473
475
486
499
507
506
497
484
474
473
482
495
505
508
501
488
476
473
478
490
501
507
503
492
479
473
476
487
499
506
505
496
484
475
474
483
495
506
508
501
489
478
474
479
490
501
507
504
493
481
474
476
486
499
507
506
496
483
474
473
481
493
504
507
502
489
477
473
480
492
502
507
503
494
483
478
482
494
507
516
517
508
496
487
486
494
505
515
517
510
496
484
480
486
497
508
513
508
496
483
476
478
488
500
508
506
496
484
475
474
481
493
503
504
497
485
475
471
476
488
499
504
500
489
477
470
473
483
496
504
503
493
481
472
471
479
492
503
506
498
485
477
486
520
569
618
652
657
633
595
556
527
508
497
489
476
458
441
430
429
437
451
463
467
463
453
445
443
451
466
480
487
485
475
465
461
465
476
489
499
499
491
480
472
472
481
495
506
509
503
492
482
479
486
497
509
515
512
501
489
482
486
498
511
519
518
509
496
488
488
498
511
521
523
517
505
494
490
496
507
519
524
519
508
495
488
491
501
513
520
518
508
495
486
485
492
505
515
516
509
496
484
481
485
496
507
512
507
495
483
476
478
488
500
507
506
495
482
473
473
482
494
503
504
496
483
472
468
474
486
497
501
497
485
473
466
469
480
492
499
497
487
475
466
466
474
486
496
498
491
478
467
464
470
482
493
498
493
482
470
464
467
477
490
497
496
486
474
465
465
474
486
495
497
490
478
467
464
471
483
495
499
495
484
472
467
470
481
492
500
498
489
476
468
468
477
489
499
501
495
482
471
467
474
486
497
502
498
487
475
469
472
482
495
503
501
491
479
470
471
480
492
501
503
496
484
473
470
476
488
499
504
499
488
476
470
474
485
497
504
502
493
481
472
472
481
493
502
503
495
484
474
471
478
490
501
505
501
489
477
472
475
484
497
505
504
494
481
472
472
481
494
504
505
497
484
474
471
478
490
501
506
502
491
479
472
475
485
498
506
504
494
481
473
474
483
495
504
505
498
486
476
473
478
490
502
507
503
490
478
473
476
486
499
506
505
495
482
474
474
483
496
505
506
499
486
476
473
480
492
503
507
503
491
479
473
476
488
500
507
505
496
483
