522
512
504
506
518
534
548
556
556
546
532
518
512
514
524
538
554
562
560
552
536
524
516
518
526
544
556
566
564
556
540
528
520
520
530
546
562
568
568
558
542
530
522
522
530
546
558
566
566
556
542
526
518
520
528
542
558
564
562
552
538
524
516
516
524
540
550
558
558
550
534
520
510
510
522
534
546
554
552
544
528
516
506
506
516
528
542
550
550
540
526
512
504
502
512
524
538
546
546
538
524
508
498
498
506
522
536
542
544
534
520
506
498
496
506
520
534
542
542
534
520
504
496
496
504
518
532
540
542
534
520
504
496
496
504
518
532
542
544
534
522
510
500
502
510
526
540
550
552
544
532
516
508
506
514
528
542
550
552
542
530
514
504
502
510
524
538
546
548
542
524
512
502
498
506
520
534
544
546
538
524
508
500
498
506
518
532
542
544
536
524
508
498
498
504
518
534
544
544
536
524
510
500
498
506
520
534
544
546
538
526
510
500
500
506
518
534
544
548
540
532
536
554
584
626
666
698
708
694
664
624
578
542
518
504
502
508
510
506
498
482
466
456
456
464
478
494
508
512
510
498
486
476
476
486
498
516
528
534
528
518
502
494
492
500
514
532
544
546
542
528
516
506
504
512
524
542
552
556
550
540
524
514
510
516
530
546
558
560
556
542
528
518
516
522
536
550
562
566
560
548
532
522
518
524
538
554
566
568
564
552
536
524
520
526
538
554
564
568
562
552
534
522
518
522
536
550
562
566
558
546
530
520
514
518
530
546
556
560
554
542
526
514
510
514
526
542
552
556
550
538
524
510
504
508
520
536
548
552
546
534
518
506
502
508
518
532
544
548
544
530
516
504
498
502
514
530
540
546
540
530
512
502
496
500
512
526
538
544
538
526
514
500
494
500
512
526
538
544
538
528
512
498
494
498
510
526
538
542
540
528
514
504
500
504
518
532
546
552
550
538
524
512
506
508
522
534
548
552
550
536
522
508
504
506
518
532
544
548
546
534
518
506
500
504
512
528
540
546
544
532
516
502
496
500
512
526
540
544
542
530
516
502
496
498
510
526
540
546
544
532
518
504
498
500
512
526
540
546
544
534
518
506
498
504
512
526
540
546
544
534
522
518
536
568
614
662
696
712
700
670
630
588
554
530
522
518
520
516
506
492
474
460
454
460
466
484
500
508
510
500
490
478
472
478
490
506
520
532
530
522
508
496
490
492
506
522
536
544
544
536
522
508
502
508
516
530
544
554
554
546
530
516
510
512
524
538
552
560
560
550
536
522
516
518
528
542
556
564
564
554
542
526
518
520
530
546
560
568
568
560
546
530
522
522
530
546
560
568
566
558
542
528
520
518
530
542
558
564
564
554
538
524
516
518
526
538
552
560
560
550
536
520
512
510
520
534
548
556
554
544
530
516
508
508
516
528
542
552
550
540
526
512
504
502
514
524
538
546
548
538
524
508
500
500
508
522
536
544
544
536
522
508
498
496
506
518
536
542
542
534
520
506
496
496
504
516
532
540
542
534
520
504
496
494
502
516
530
540
540
534
520
508
498
500
508
522
538
548
552
544
532
516
506
508
514
528
542
552
554
546
530
514
506
504
512
524
538
548
548
542
526
512
502
500
506
520
536
544
546
538
526
510
498
500
504
518
532
542
544
536
522
508
500
498
504
518
532
544
544
536
524
510
500
496
506
518
534
544
546
540
524
512
500
500
506
518
534
546
546
540
528
512
506
522
558
604
652
690
710
702
676
636
598
568
548
536
534
530
520
506
488
468
458
454
458
474
490
502
508
506
494
480
472
472
480
494
512
524
530
524
514
502
492
490
498
510
526
540
544
540
528
514
504
502
508
522
536
550
554
548
536
524
512
510
516
530
544
556
560
554
542
530
518
514
520
534
548
560
566
560
548
534
522
518
522
534
552
564
568
564
550
536
524
520
526
538
552
564
568
564
550
536
524
518
524
536
550
562
566
560
548
534
520
516
520
532
546
558
560
556
544
528
516
510
514
526
542
552
556
552
540
524
512
506
510
522
536
548
554
546
534
520
508
502
506
518
532
544
550
542
532
516
504
500
502
514
528
540
546
540
530
516
502
496
500
514
526
538
544
540
528
512
502
496
498
510
524
536
544
540
528
512
500
494
498
510
524
536
542
540
528
514
502
496
500
514
528
544
550
546
538
524
510
506
508
518
534
548
554
548
538
522
510
504
506
516
532
544
550
548
536
520
508
500
502
514
528
540
546
542
536
518
504
498
500
510
524
538
544
542
532
518
504
498
500
510
524
538
544
544
532
518
504
498
500
510
526
538
546
544
532
518
506
498
502
512
526
540
546
546
534
520
508
502
514
548
594
642
680
704
700
678
644
610
584
566
558
550
540
524
504
482
466
456
454
466
480
496
504
504
496
484
474
468
472
484
500
516
526
526
520
506
492
488
490
500
518
534
542
540
534
520
508
502
504
512
528
544
552
552
542
530
518
510
512
520
536
550
558
560
550
536
522
514
516
526
540
556
564
562
554
540
526
518
520
530
542
556
566
566
558
544
530
522
522
530
546
558
568
568
558
544
530
520
520
530
542
556
564
564
554
540
526
518
518
526
538
552
562
560
552
538
522
514
512
522
534
548
554
556
546
532
518
508
508
514
528
544
550
552
544
528
514
504
504
510
524
540
548
548
540
526
510
502
500
508
522
534
544
546
536
522
508
498
498
504
518
534
542
544
536
522
506
498
496
504
516
532
540
542
536
522
506
496
496
502
516
530
540
542
534
520
508
496
496
506
520
534
546
548
544
530
516
508
506
512
526
542
550
554
546
532
516
506
504
510
524
538
548
550
542
528
512
504
502
508
518
534
544
546
538
526
510
502
498
504
518
532
542
544
538
522
510
500
496
502
516
530
542
546
538
526
510
500
498
504
516
532
544
548
540
526
512
500
498
504
518
534
544
548
542
528
512
502
500
512
540
582
628
666
686
694
676
652
626
602
588
576
564
546
526
502
480
462
456
460
472
486
498
504
498
488
478
468
468
474
490
506
520
526
522
512
498
488
486
496
510
524
536
542
536
526
512
502
500
506
520
536
548
552
546
536
522
512
508
514
526
542
554
560
556
544
530
518
514
520
532
548
560
564
560
546
532
522
518
522
534
550
562
568
564
552
538
526
522
526
534
552
564
568
564
552
536
524
520
524
536
550
560
566
562
550
534
522
516
520
532
546
558
562
558
546
532
518
512
516
524
540
552
556
552
542
526
514
506
510
520
534
548
554
548
538
524
508
504
506
518
534
544
548
544
534
518
506
502
502
514
528
542
546
542
532
516
502
498
500
510
526
538
544
542
530
516
502
496
500
510
524
536
542
540
528
516
502
496
498
508
522
536
542
540
530
514
502
496
496
510
526
540
548
546
538
522
510
504
508
518
532
548
554
550
540
526
512
504
506
516
530
542
550
548
538
522
508
502
504
512
526
540
546
546
536
520
506
500
500
510
524
538
544
544
532
518
504
498
498
508
522
536
544
542
532
518
506
498
500
510
524
538
544
544
534
522
506
500
500
510
524
538
546
544
536
524
508
500
502
512
536
574
612
646
668
678
672
656
638
622
608
596
578
556
530
502
478
462
458
464
478
492
502
502
494
482
470
464
466
478
494
512
522
524
516
504
492
486
488
498
514
528
538
540
532
520
506
500
500
510
526
540
550
550
544
530
516
508
508
516
532
548
556
558
552
536
524
514
514
522
538
552
562
562
554
542
528
518
518
526
542
556
564
566
558
546
532
522
522
530
544
558
566
568
560
546
530
520
520
528
540
554
564
566
556
544
528
518
516
524
538
552
560
562
552
540
524
516
514
520
532
548
556
558
548
536
520
510
508
516
526
542
550
554
546
532
516
506
504
510
524
538
548
550
542
528
514
504
500
506
520
536
544
546
540
526
510
500
498
504
518
532
542
542
536
524
510
500
496
502
516
530
540
544
536
522
508
498
496
502
514
528
538
542
538
524
508
498
496
502
516
532
544
548
542
530
516
506
504
510
524
540
550
554
546
534
520
508
506
510
522
536
548
550
546
532
516
504
500
506
518
534
544
548
542
530
514
502
498
504
516
530
542
544
538
528
512
500
496
502
512
530
540
544
540
528
512
500
498
504
514
530
540
546
540
530
514
502
498
504
516
530
542
546
542
530
518
504
498
506
514
536
564
596
624
646
662
666
662
652
642
628
612
590
564
532
502
480
466
464
472
486
496
500
498
488
474
464
462
470
482
500
514
522
518
510
496
486
482
488
502
518
532
538
536
526
512
502
496
502
514
530
544
550
548
536
522
512
508
512
522
538
552
560
554
546
530
518
514
516
526
544
556
564
560
550
534
522
518
522
532
548
560
566
564
554
538
526
522
522
534
550
562
570
566
552
540
526
520
522
534
548
560
566
562
554
538
524
516
520
528
544
556
562
560
548
534
520
514
514
524
538
552
558
556
544
530
516
508
510
518
534
546
554
550
540
524
512
504
506
516
530
544
550
548
536
522
508
502
502
512
524
540
546
544
534
520
506
498
500
508
522
536
544
542
534
518
504
496
498
508
522
534
542
540
530
518
502
496
496
504
520
534
542
540
532
516
504
496
496
504
520
536
544
548
538
524
512
504
506
516
530
544
552
552
544
528
514
506
504
516
528
542
552
550
540
526
512
504
504
512
524
538
546
546
536
524
508
500
498
508
522
536
544
544
534
520
506
498
498
506
520
536
544
542
534
522
508
500
500
506
520
534
544
544
538
522
510
500
498
506
520
536
546
546
538
524
510
500
500
508
522
538
558
580
604
624
640
656
664
666
660
650
630
604
570
536
506
480
470
472
480
490
500
500
494
482
470
462
462
472
486
506
516
520
516
506
490
482
482
492
506
524
536
538
532
520
506
498
496
506
520
536
546
552
542
532
518
508
508
514
528
544
554
556
552
538
524
516
512
520
534
550
560
564
556
544
530
520
516
524
538
554
562
566
560
548
534
522
520
526
538
556
566
570
562
550
534
522
520
526
538
554
564
566
560
548
532
522
518
522
534
550
560
564
556
544
530
518
512
518
530
546
556
558
552
540
524
512
508
514
526
540
550
556
548
536
520
508
504
508
522
536
546
550
544
532
516
506
500
504
518
532
542
546
540
530
514
502
498
502
516
528
540
546
542
526
514
500
496
502
512
526
538
542
540
526
512
500
496
500
510
524
536
544
538
526
512
500
494
498
512
528
538
544
542
530
518
508
502
506
520
534
548
552
550
538
524
510
506
510
518
534
548
552
548
536
522
508
502
506
516
530
542
548
544
532
518
504
498
502
514
528
540
546
540
530
514
504
496
500
512
526
538
544
542
530
516
504
498
500
510
526
538
546
542
532
518
504
498
502
514
526
540
546
542
534
520
506
500
502
512
526
542
552
566
584
600
622
644
664
678
676
666
644
616
578
540
508
486
476
480
486
496
502
500
490
476
464
458
462
476
492
506
516
518
508
496
486
482
482
496
510
526
536
536
526
514
502
496
496
510
524
540
548
548
538
526
512
506
508
518
532
548
556
556
548
532
520
512
514
524
538
552
562
560
552
538
524
518
518
526
540
556
564
566
556
542
528
522
522
530
546
560
568
568
560
544
530
522
522
530
544
558
566
566
556
544
528
518
518
526
540
554
562
562
554
540
524
516
514
524
536
550
558
558
548
534
520
510
510
518
532
544
554
554
544
530
516
506
506
512
528
540
548
550
542
528
512
502
502
508
522
538
546
546
538
524
510
500
498
506
520
534
542
544
536
522
508
498
498
504
516
530
542
542
536
522
506
498
496
504
514
530
540
542
534
522
508
496
494
502
514
530
542
544
538
526
512
504
502
510
524
540
550
552
544
534
518
508
506
512
526
538
550
552
544
532
516
506
502
508
520
536
546
548
542
528
514
502
498
504
518
532
542
546
538
526
510
500
498
504
516
530
540
544
540
526
510
500
496
504
516
532
542
546
540
526
512
502
500
504
518
532
542
546
540
528
514
502
500
504
516
532
544
550
554
564
578
600
630
660
682
690
684
662
628
588
548
514
494
484
486
494
502
502
496
486
470
460
456
464
478
494
510
516
512
504
490
482
478
484
498
516
528
536
532
522
508
498
494
500
512
530
542
548
546
534
520
508
504
508
524
538
550
556
552
542
528
516
512
516
530
544
556
562
560
548
534
522
516
520
532
548
560
568
562
552
538
524
520
522
534
550
562
568
566
554
538
526
520
522
534
548
562
566
564
552
540
524
518
520
530
546
560
564
560
550
536
522
514
516
526
540
554
560
556
544
532
516
510
512
522
536
548
554
554
540
526
512
506
506
518
532
544
552
548
536
522
508
502
504
514
528
540
546
546
534
520
506
500
500
510
524
538
546
542
534
518
504
498
498
508
522
536
542
540
532
518
504
494
496
508
522
534
542
540
530
516
502
496
498
506
520
536
542
542
534
522
508
502
504
514
530
544
552
552
542
528
514
506
506
516
528
544
550
550
540
526
512
504
504
512
524
540
548
546
538
524
510
500
500
508
524
536
544
546
536
522
508
498
498
506
520
534
544
544
534
522
508
498
498
508
520
534
544
544
536
522
508
498
500
508
520
536
544
546
538
524
510
500
500
510
522
536
546
546
542
546
558
582
614
650
684
698
696
676
640
596
556
524
504
496
496
502
506
504
494
480
464
456
456
466
482
498
512
514
510
500
486
478
478
488
500
520
530
534
528
516
504
494
494
502
516
532
544
548
542
528
516
506
504
510
526
542
552
556
548
538
524
512
512
520
532
548
558
564
556
542
528
518
516
522
536
552
562
564
558
546
532
522
520
526
542
556
566
570
562
550
534
526
522
526
538
554
564
568
562
550
532
522
518
522
536
550
562
564
558
546
530
518
514
520
532
546
556
560
552
542
526
514
510
514
526
540
552
556
550
536
522
510
504
510
520
536
546
552
544
534
518
506
502
506
518
532
544
548
542
530
516
504
498
502
514
528
544
544
542
528
512
502
496
500
512
528
538
544
540
528
512
500
494
498
510
526
540
542
538
526
514
500
496
498
510
526
536
544
540
528
516
504
500
504
518
534
546
552
548
538
524
512
504
510
520
534
546
552
548
538
522
508
502
506
516
532
544
548
546
534
518
506
498
502
514
528
542
546
542
532
516
504
498
500
510
526
538
544
542
530
518
504
498
498
510
526
538
546
544
534
518
504
498
502
512
526
540
546
544
534
518
506
498
502
512
526
540
546
546
536
532
540
562
598
640
682
704
704
686
650
608
566
534
514
506
506
510
510
502
492
474
462
454
458
470
486
500
510
512
502
492
480
476
480
490
506
522
532
532
524
510
498
492
494
506
520
536
546
546
536
524
510
504
506
516
530
546
554
554
544
532
518
512
512
520
538
552
558
560
552
538
524
516
518
526
540
554
564
564
554
542
528
518
520
530
544
558
568
568
560
546
532
522
522
530
544
558
566
566
558
544
528
522
520
528
540
554
562
564
554
542
526
516
516
524
536
550
558
558
550
538
522
512
512
518
532
544
554
554
546
532
518
508
506
512
526
540
550
550
542
528
514
504
502
510
522
538
546
546
538
526
512
500
500
506
518
534
544
544
536
524
508
498
496
504
518
532
542
544
536
522
508
496
496
502
516
530
540
542
534
522
506
496
496
500
514
530
540
542
536
524
510
500
498
508
520
536
548
552
548
534
520
508
506
510
524
540
550
554
546
534
516
506
504
510
520
534
546
548
542
530
514
504
500
504
516
532
544
548
540
528
512
500
498
502
516
530
542
544
540
526
510
502
498
502
514
530
540
546
540
528
514
502
498
502
518
532
542
548
540
530
514
502
500
506
516
530
544
548
542
532
518
522
544
584
630
674
704
712
692
658
616
576
546
526
518
518
518
514
502
490
470
458
454
458
470
490
502
510
508
498
486
476
474
480
494
510
524
532
528
518
506
494
492
494
510
524
538
546
544
532
520
508
504
508
520
536
548
554
552
542
530
516
510
514
526
542
554
562
556
548
534
520
516
518
530
544
558
564
562
552
536
524
518
524
534
548
562
568
566
556
542
528
522
524
534
548
562
568
566
554
542
526
518
522
532
546
558
564
562
552
536
522
516
518
528
540
554
560
560
548
532
518
510
512
522
536
548
556
554
542
528
514
506
508
518
530
544
550
548
540
524
510
504
502
514
528
540
548
546
536
522
508
500
500
510
524
538
544
544
534
520
504
498
500
508
522
536
544
542
532
518
504
496
498
506
518
532
540
540
532
518
504
496
496
504
518
534
542
542
534
518
506
500
500
510
526
540
552
550
542
528
514
506
506
516
528
544
552
552
542
528
514
504
504
512
526
540
548
548
538
526
510
502
500
510
522
536
546
544
536
524
506
498
500
506
518
534
542
544
534
522
508
498
496
506
518
534
544
544
536
522
508
500
498
506
520
536
544
546
538
524
510
500
500
506
520
536
544
546
540
526
512
512
530
570
616
664
698
712
698
668
628
588
560
542
532
530
526
518
502
484
468
456
454
462
476
492
504
510
502
494
480
472
472
480
496
514
526
530
526
514
500
490
490
500
512
530
540
544
540
526
512
504
502
510
522
540
550
554
548
538
522
512
510
516
530
546
556
560
554
542
528
518
514
522
534
550
560
564
558
546
532
522
518
524
538
552
564
568
564
552
536
526
520
526
538
554
566
568
562
550
534
524
518
524
534
550
562
564
560
550
532
520
516
518
532
548
558
560
556
544
528
516
510
516
526
542
552
556
550
540
524
512
506
510
520
536
548
550
546
536
520
508
502
506
518
534
544
548
542
532
518
504
498
502
514
528
542
546
542
530
516
502
496
500
512
526
538
544
538
528
514
502
494
498
510
524
536
542
540
528
512
500
494
498
510
524
536
542
540
528
514
502
496
502
512
530
544
550
548
538
522
510
504
510
520
534
548
552
550
538
524
510
504
508
518
530
544
550
546
536
520
508
500
502
512
526
540
546
544
532
518
506
498
500
510
524
538
544
542
532
516
504
498
498
510
524
536
544
542
532
518
504
498
500
512
524
540
546
546
534
518
506
498
502
510
526
540
546
546
536
522
508
504
518
556
604
650
688
706
698
672
636
602
576
556
548
542
534
520
502
482
466
454
454
464
480
494
504
506
498
488
476
470
474
484
498
516
526
528
522
508
496
490
492
500
516
532
542
544
534
522
508
502
502
514
526
542
552
552
544
532
518
510
512
520
534
548
558
558
552
536
524
516
516
524
540
554
562
564
556
542
528
520
520
528
542
556
566
566
560
546
532
524
522
530
542
558
568
568
560
546
530
522
518
526
540
554
564
564
556
544
528
518
516
524
536
550
560
562
552
540
524
514
512
520
532
546
554
556
548
534
520
510
506
512
526
542
550
552
546
530
516
504
502
510
522
536
546
548
542
526
512
502
500
506
520
534
544
544
538
526
510
500
496
502
516
530
542
544
538
526
510
498
496
502
514
530
540
542
536
524
508
498
494
500
514
528
540
542
538
524
510
498
496
504
518
534
546
550
546
532
520
508
504
512
526
538
550
554
546
536
518
508
504
508
522
536
546
550
544
532
518
504
500
504
518
532
544
546
542
530
514
502
498
502
514
530
540
544
540
528
514
502
496
502
512
528
540
544
542
528
514
502
498
502
514
528
542
546
540
530
516
504
498
502
514
528
544
546
546
530
516
504
502
514
546
590
636
674
696
696
678
646
616
592
574
564
556
542
524
504
482
464
456
456
468
484
498
504
504
494
482
470
468
474
486
502
518
524
526
516
502
492
488
492
504
520
534
544
540
530
518
504
500
504
514
530
546
552
552
540
528
514
508
512
524
538
552
558
558
548
534
520
514
518
530
542
556
564
562
552
540
524
518
520
532
546
560
566
566
556
542
530
522
524
534
548
562
568
566
556
542
526
520
522
530
544
558
564
564
554
538
524
518
518
526
540
554
562
560
550
536
520
514
514
522
536
548
556
554
546
530
516
508
508
518
532
544
552
550
542
526
512
504
504
514
526
540
548
548
538
524
510
502
502
508
524
536
546
546
536
522
506
498
498
506
520
534
542
544
534
520
506
496
496
504
518
532
542
542
532
520
504
496
496
502
516
532
542
542
534
520
506
498
498
506
520
536
546
550
540
530
516
506
506
514
526
542
550
554
544
530
516
506
506
512
524
540
548
550
542
528
514
504
500
508
522
536
546
546
538
524
510
500
498
506
518
532
542
546
536
524
510
498
498
504
518
532
542
546
536
524
510
500
496
506
520
532
544
546
538
528
512
500
498
504
520
534
544
548
540
526
512
502
500
510
536
578
620
658
682
690
678
654
628
608
592
582
568
552
528
506
480
464
456
460
472
488
498
504
500
488
478
468
466
474
488
506
520
526
522
512
498
490
486
494
508
524
538
540
536
526
512
502
500
508
518
534
546
552
548
536
522
512
508
514
528
542
554
560
556
544
530
518
514
518
532
546
558
564
560
548
534
522
518
522
534
550
562
566
562
552
538
526
522
526
536
552
564
570
564
554
538
524
518
522
534
550
560
566
562
550
536
522
516
520
532
544
558
562
558
548
532
520
512
516
526
540
552
558
554
542
526
514
506
510
520
536
548
552
550
540
522
510
504
506
516
530
542
550
546
534
520
506
500
504
512
526
540
546
542
532
516
504
498
500
510
524
538
544
540
532
518
502
496
494
508
522
536
544
540
530
516
502
494
498
506
522
534
542
542
532
516
502
496
496
510
524
538
546
546
538
524
512
504
506
516
530
544
554
554
542
526
514
504
506
516
530
544
550
548
538
524
510
502
502
510
524
538
546
546
536
522
508
500
500
508
522
536
544
544
534
520
506
498
500
508
522
536
544
542
536
522
508
498
498
508
522
536
544
544
536
522
508
500
500
508
522
536
546
546
538
522
508
500
500
510
530
566
606
638
664
678
674
660
642
626
612
598
582
560
536
506
482
464
458
464
474
492
500
502
494
484
472
464
466
474
492
508
520
524
518
504
492
486
486
494
508
526
538
540
534
522
510
500
500
506
520
538
548
552
546
532
518
510
508
516
528
544
556
558
552
540
526
516
514
520
534
550
560
562
556
546
530
520
518
524
538
552
564
568
560
548
534
524
522
528
540
554
566
568
564
546
534
522
520
526
538
554
564
566
560
548
532
520
516
522
534
550
560
564
556
544
528
516
512
518
530
544
556
558
552
538
524
512
508
512
526
538
550
552
550
536
520
508
504
508
520
534
546
550
544
532
516
504
500
504
516
532
542
546
544
530
516
502
498
500
512
528
538
546
540
528
514
500
496
498
512
526
538
542
538
526
512
500
494
498
510
524
538
542
540
526
512
500
496
498
512
526
540
546
544
534
520
508
504
508
518
536
546
554
550
540
524
510
504
508
520
532
544
550
548
534
520
506
500
504
514
530
540
546
544
534
518
504
498
500
512
526
538
544
542
532
516
504
498
500
512
524
538
546
542
532
518
504
498
498
512
524
538
546
544
532
518
506
500
500
512
526
540
546
546
534
520
506
500
502
512
528
556
592
620
646
660
666
664
654
642
630
614
594
570
540
510
484
466
462
468
480
492
500
500
492
480
468
462
466
478
494
510
518
522
514
502
488
484
486
498
512
528
536
540
532
520
504
498
498
512
524
538
550
550
542
528
516
508
508
518
532
548
558
558
548
536
522
514
512
524
538
552
562
562
556
540
526
518
518
526
542
554
564
566
556
544
530
522
522
530
544
558
568
568
560
546
532
522
520
528
542
556
564
566
558
544
528
520
518
526
538
550
560
564
554
540
526
514
514
520
530
548
558
558
550
538
522
512
508
516
528
542
552
552
546
532
516
506
504
510
522
538
548
550
542
528
514
502
500
508
520
534
544
546
540
528
510
500
498
504
516
530
542
546
536
524
510
498
496
500
516
530
540
542
538
524
508
498
494
500
512
528
538
542
538
524
508
498
494
502
514
530
540
548
542
532
520
506
504
510
522
538
548
552
548
536
520
510
504
510
520
536
548
552
546
532
518
506
502
506
516
532
544
548
544
530
516
502
498
504
516
530
542
546
540
528
514
502
498
502
514
528
540
544
540
528
514
502
498
502
514
528
540
546
542
530
516
504
498
502
516
530
542
546
542
530
516
504
500
502
514
530
550
576
602
624
642
656
664
662
658
646
632
610
582
548
516
488
472
466
472
484
496
502
498
488
476
464
460
466
478
496
512
520
520
512
498
486
482
486
498
514
528
538
536
528
514
502
496
500
514
526
542
548
546
538
524
512
506
510
520
536
550
558
556
548
532
520
514
516
526
540
554
562
560
552
536
524
518
518
528
544
558
564
566
556
542
528
522
522
534
548
562
568
568
558
542
528
522
520
532
546
558
568
564
556
540
526
518
518
526
540
556
562
560
552
538
522
514
514
522
538
550
558
556
548
534
518
510
510
518
532
544
554
554
544
530
514
504
504
514
526
542
548
550
540
526
512
502
502
510
524
536
546
548
536
524
508
500
498
508
520
534
542
544
536
522
508
498
498
504
518
532
542
542
534
522
506
498
496
504
516
532
542
542
534
520
506
496
494
504
516
532
542
546
540
526
512
504
504
512
526
540
550
552
546
532
518
508
504
512
526
540
548
550
544
530
516
504
502
508
520
536
544
548
540
528
512
502
500
504
518
532
542
546
538
526
510
500
498
504
518
530
542
544
538
526
512
502
498
504
516
530
542
546
540
528
514
502
498
504
518
532
542
546
540
528
514
502
500
504
516
532
546
562
584
604
622
642
658
668
670
664
648
624
592
556
520
492
476
472
478
488
500
502
496
484
472
462
460
468
480
498
514
518
516
508
494
484
482
486
500
518
530
540
534
524
510
500
496
500
514
530
544
550
546
536
520
510
506
508
522
538
550
558
554
544
528
518
512
516
528
544
556
562
558
548
534
522
516
520
530
546
560
566
562
552
538
526
520
524
534
550
564
570
566
554
540
526
520
522
532
548
560
568
564
552
538
524
518
520
530
544
558
564
562
550
534
522
514
514
526
540
552
558
556
546
530
516
510
510
520
534
546
554
552
542
526
512
504
506
516
530
542
550
548
538
524
508
502
502
512
526
538
548
546
534
522
506
498
500
508
522
536
544
542
534
518
504
496
496
506
520
534
542
542
532
518
504
496
496
504
520
534
542
542
532
518
504
496
496
504
518
532
544
544
538
524
512
504
504
514
528
542
550
552
544
530
516
506
506
512
528
542
550
550
542
528
514
504
502
512
524
538
548
548
538
526
510
500
498
508
520
538
544
544
536
522
508
498
498
506
518
534
542
544
538
524
508
498
498
504
520
534
542
546
536
526
510
500
500
504
520
534
544
548
538
526
512
502
500
506
522
534
546
554
566
584
602
626
650
672
680
678
664
638
604
564
528
500
482
478
482
494
500
502
494
482
468
458
458
466
480
498
512
518
514
504
490
482
480
488
502
518
530
536
534
520
508
498
496
502
516
532
544
548
546
532
518
508
506
512
524
540
552
556
552
540
526
516
512
518
530
544
558
562
558
546
532
520
518
522
534
