518
538
548
540
518
500
496
508
530
548
546
530
510
498
500
520
542
550
542
522
502
496
510
530
548
552
534
510
498
504
520
544
552
544
524
504
498
510
532
550
552
538
514
500
502
520
544
554
546
528
506
498
510
532
552
552
538
516
500
502
522
542
554
548
526
506
500
510
534
550
554
540
516
502
502
520
542
554
548
528
508
500
510
530
550
554
540
518
504
504
520
542
554
548
530
508
502
512
530
550
552
540
520
504
504
520
542
554
550
532
510
502
510
530
548
556
544
520
504
502
518
540
554
550
532
512
502
508
530
550
554
542
522
506
504
518
540
554
550
534
512
502
508
528
548
554
542
522
504
504
518
540
554
552
534
514
504
510
528
546
554
544
524
508
504
518
538
552
550
536
514
504
510
528
548
554
544
526
506
506
516
538
552
550
536
516
504
508
526
548
554
544
526
508
504
514
536
550
552
536
516
504
510
526
546
554
544
528
508
504
516
536
550
552
536
516
506
508
524
544
554
546
528
510
506
518
538
558
560
548
528
516
520
536
556
564
558
538
518
514
524
542
558
558
544
522
510
512
526
546
556
548
530
510
504
514
534
548
550
536
516
502
506
520
540
552
544
528
508
502
510
530
546
550
538
518
504
504
520
540
552
546
528
510
502
510
540
590
636
668
676
664
640
620
604
582
550
514
480
462
466
482
502
506
496
478
468
468
490
510
524
524
510
492
484
496
512
534
542
532
514
500
500
518
538
552
550
534
516
506
514
534
554
562
550
532
516
514
528
550
564
562
546
526
518
524
542
562
568
558
540
526
520
536
554
568
566
552
530
518
526
542
562
568
558
538
520
518
528
550
564
562
544
524
514
518
534
552
558
552
532
514
508
520
540
556
554
538
516
504
508
524
542
552
544
522
506
500
512
532
546
544
532
510
498
502
518
538
546
538
520
502
496
506
526
542
542
528
508
496
498
514
534
544
538
516
500
494
504
524
540
542
528
508
494
500
514
534
544
536
520
502
496
506
526
542
544
532
510
498
500
514
536
546
540
524
506
498
508
524
538
542
534
518
508
510
522
534
540
536
524
512
508
516
528
540
542
532
518
508
510
520
534
542
538
526
514
508
514
528
540
540
532
520
510
512
522
534
544
540
528
514
510
518
530
540
542
536
520
512
512
522
536
544
540
528
516
510
516
528
540
544
534
522
512
512
522
536
544
542
528
516
510
518
528
542
546
536
522
514
510
522
536
544
542
530
514
508
514
530
546
550
538
522
508
508
520
538
550
548
532
514
508
512
528
546
548
538
524
512
510
522
540
552
550
534
514
504
508
526
544
552
544
526
508
506
516
534
550
550
536
516
504
508
524
544
552
546
528
508
504
514
534
550
550
536
518
506
506
524
544
552
546
528
510
504
516
534
548
550
540
520
506
508
524
544
552
544
528
510
506
516
532
550
550
540
520
506
508
524
542
552
546
530
512
504
512
532
550
552
540
520
506
506
522
542
552
546
530
512
504
514
534
548
552
540
520
508
508
522
542
552
548
534
516
512
520
540
558
562
550
532
518
520
530
552
560
558
540
520
514
520
536
552
556
546
526
510
508
522
540
552
548
532
514
504
510
528
544
550
540
520
506
502
516
536
548
546
530
512
502
510
528
544
550
542
522
506
504
516
536
548
548
532
522
542
590
652
702
712
684
630
576
538
524
520
518
508
490
468
456
462
480
502
512
506
492
478
476
492
514
528
530
518
500
492
498
518
536
546
538
522
506
504
518
536
552
554
540
522
512
518
534
554
560
554
536
520
516
528
548
562
564
550
532
520
526
540
560
568
562
544
528
522
534
550
564
566
554
534
522
524
538
558
564
560
540
522
516
524
544
558
560
546
526
514
514
530
546
556
550
532
514
506
516
534
550
552
538
518
506
506
520
540
548
542
526
508
500
508
526
540
544
534
514
500
502
514
534
544
540
522
504
496
504
522
538
544
530
512
498
496
512
532
542
536
522
504
496
502
520
538
544
532
514
500
498
512
532
542
540
526
506
498
506
522
538
544
534
516
500
502
514
534
548
544
526
508
500
506
524
540
546
536
518
504
502
514
534
546
544
528
510
502
506
526
542
548
538
520
506
502
516
536
548
546
532
512
502
508
524
542
548
540
522
506
504
518
536
548
546
534
514
504
508
526
544
550
540
522
508
504
516
534
548
548
534
514
504
508
524
544
550
542
526
508
504
516
534
550
548
536
516
504
508
524
542
552
546
526
510
504
516
534
548
548
534
518
506
510
524
542
552
544
526
510
504
516
534
548
550
538
518
506
508
524
542
552
544
528
510
506
514
534
550
550
538
520
506
506
524
542
552
548
528
512
506
516
532
548
552
538
520
506
508
522
542
552
548
530
512
506
514
532
548
552
538
520
508
508
524
542
552
548
530
512
506
514
532
550
552
540
522
508
510
522
542
550
548
530
514
504
514
530
548
552
540
522
508
508
520
540
552
548
532
514
506
512
530
548
552
542
524
508
506
520
540
552
548
532
514
506
512
530
546
554
542
524
508
508
522
542
556
554
540
524
516
522
540
558
562
554
534
520
516
528
548
558
556
542
522
512
518
532
548
554
544
524
510
506
520
536
550
548
532
514
504
510
526
542
548
540
522
506
504
518
534
546
546
532
514
504
510
524
542
550
540
524
508
504
516
534
556
582
608
634
658
670
670
654
624
580
534
496
476
476
490
502
502
488
472
462
470
488
510
520
516
502
488
484
496
516
534
538
526
508
498
504
518
538
548
544
528
512
508
516
538
554
556
544
526
514
518
534
552
562
558
540
524
518
530
546
562
566
554
534
524
524
540
560
568
562
546
528
522
530
548
564
564
554
536
520
522
536
554
562
558
542
524
516
522
540
556
558
544
526
512
512
524
544
554
548
532
514
506
514
530
546
550
538
518
506
502
518
536
546
542
524
508
500
508
524
540
544
532
514
500
498
512
532
542
538
522
504
496
502
520
538
542
532
512
498
498
512
528
540
538
520
504
496
502
520
536
542
532
514
500
498
510
530
544
540
526
508
498
506
522
538
544
536
518
502
500
514
532
544
542
528
510
502
506
524
540
546
538
520
504
504
514
532
546
544
530
512
502
506
524
540
546
538
522
506
504
514
534
546
544
532
514
504
506
524
542
550
540
524
508
504
516
534
546
548
532
516
506
508
524
542
548
542
524
508
506
516
534
546
546
534
516
506
508
524
540
548
544
526
510
506
514
534
548
548
536
518
506
508
524
542
550
546
526
510
506
514
532
548
550
536
518
506
508
522
540
550
546
528
510
506
516
532
548
552
538
520
508
508
522
542
550
546
528
512
506
516
532
548
550
538
520
506
508
522
540
550
546
530
512
506
514
530
548
550
538
520
508
508
522
540
550
548
532
514
506
514
532
546
552
538
522
508
508
520
540
550
546
530
516
506
514
530
546
552
540
524
508
508
522
540
552
546
532
514
506
514
528
548
550
540
524
510
508
518
538
550
546
532
516
508
512
528
546
552
542
524
508
508
520
538
550
548
536
516
508
514
532
550
558
550
534
520
518
532
550
562
560
546
526
516
524
536
552
558
548
532
514
510
522
540
552
550
536
518
508
512
526
544
550
540
524
508
504
516
534
548
546
534
514
504
508
524
540
548
540
526
510
506
516
532
546
548
534
516
506
508
526
554
596
632
658
670
664
648
630
608
574
536
498
474
470
476
494
502
496
482
470
468
480
500
518
522
512
496
488
492
508
528
538
532
518
504
500
512
528
546
548
538
522
510
512
528
548
556
552
536
520
514
528
544
560
560
550
532
520
522
538
556
566
560
544
528
522
530
550
564
568
558
536
524
524
540
556
566
562
544
526
520
526
544
560
562
550
530
518
518
530
546
556
552
536
518
512
516
534
550
552
540
524
508
510
522
538
548
544
528
510
502
510
526
542
546
534
516
504
506
514
532
542
538
524
508
498
504
522
536
540
532
514
500
498
510
530
540
536
524
506
498
502
520
536
542
530
514
500
500
512
528
540
536
524
506
498
506
522
536
544
532
516
502
500
512
530
542
540
526
510
500
506
522
538
546
536
518
504
502
514
532
544
542
530
512
502
508
522
540
546
538
522
506
504
514
534
546
544
532
514
504
506
524
542
548
540
522
508
506
514
532
546
548
534
516
504
508
524
542
550
542
524
508
504
516
534
548
546
534
516
506
508
524
542
550
542
526
510
506
516
534
548
548
538
518
506
508
524
542
550
544
528
512
506
516
532
546
550
536
518
506
510
524
540
550
544
528
512
508
516
532
548
550
538
520
506
508
522
542
550
544
530
512
506
516
532
546
550
538
520
508
510
524
540
552
546
528
514
508
518
536
552
558
548
532
518
520
534
552
560
556
540
522
516
524
540
552
556
544
524
512
514
526
542
552
546
530
514
510
516
530
546
546
536
520
506
508
520
536
546
540
526
510
506
514
528
542
546
534
518
508
508
520
536
546
542
528
512
508
512
540
584
630
666
678
670
646
622
602
576
546
512
484
468
468
482
494
500
494
480
472
474
488
506
518
518
508
496
492
498
514
530
534
528
516
506
506
518
534
546
544
534
518
514
520
536
550
552
546
532
520
520
532
548
558
556
544
530
524
528
542
556
560
554
540
530
528
538
552
562
562
548
534
526
530
544
558
560
552
538
526
524
532
546
556
556
544
528
520
524
536
548
552
546
532
518
514
524
538
548
546
534
518
512
512
526
540
544
538
524
510
506
516
530
540
540
528
512
504
508
520
534
540
532
518
504
502
514
526
536
536
526
510
502
504
518
530
536
530
518
504
500
510
524
534
536
526
510
502
502
518
532
536
532
518
504
502
510
526
538
540
528
512
502
504
518
534
542
538
522
508
502
512
526
540
542
530
514
504
506
518
538
544
538
524
508
502
512
528
542
546
534
516
504
506
518
536
546
544
528
510
504
510
528
544
548
538
520
506
506
518
536
548
544
530
512
504
510
528
544
550
540
520
508
508
520
538
550
546
532
512
506
512
526
544
550
540
520
508
506
520
536
548
548
532
514
504
512
528
544
550
540
524
508
510
518
538
548
546
532
514
506
512
528
544
550
542
524
508
506
518
536
550
548
534
514
506
510
528
544
552
542
524
510
506
518
538
552
552
540
522
514
520
536
554
562
554
536
522
518
528
544
558
556
542
524
512
516
530
548
554
548
528
512
508
518
536
550
550
534
516
504
508
522
542
548
540
524
508
504
514
532
546
548
534
514
504
508
524
542
550
542
526
510
504
514
532
546
548
548
570
602
644
684
700
680
636
582
534
502
496
500
506
502
488
472
460
464
482
504
514
512
498
484
480
492
512
530
534
524
508
496
500
516
534
546
542
528
512
506
516
534
550
554
544
526
516
516
530
550
560
558
542
524
518
526
544
560
566
554
536
522
524
538
558
568
566
548
530
522
528
546
564
566
554
536
522
520
534
554
564
558
542
524
516
524
540
556
560
548
528
514
514
526
544
554
550
534
516
508
512
530
546
552
538
522
506
504
518
534
546
544
528
508
500
506
524
538
544
534
516
502
500
512
530
540
540
524
506
496
502
520
536
542
532
514
498
498
512
528
540
538
524
506
496
502
516
536
542
534
514
500
498
510
530
540
542
526
508
498
502
520
536
544
536
520
504
500
512
530
544
544
528
512
500
506
522
538
546
538
520
506
502
514
530
544
546
530
512
502
506
520
542
548
540
522
506
504
514
532
546
546
534
514
504
508
522
540
548
542
524
508
504
512
532
546
548
536
516
504
508
524
540
548
544
526
510
504
514
532
546
548
536
518
506
508
524
540
550
544
528
510
504
514
532
546
550
538
518
506
508
524
542
550
544
528
512
504
514
532
546
550
538
520
506
508
522
540
550
546
530
512
506
512
532
546
550
540
520
508
510
522
540
552
546
530
512
506
514
532
546
550
538
520
508
508
520
540
550
546
530
514
506
512
530
546
550
540
522
508
508
522
540
550
548
532
512
506
514
530
546
552
540
522
508
508
520
540
550
548
532
514
506
512
530
546
550
542
524
508
508
518
538
550
548
536
514
506
514
530
546
552
544
524
510
506
520
538
550
550
534
516
506
514
528
546
552
542
526
512
510
522
544
558
556
544
526
518
524
538
556
562
552
536
520
514
526
544
556
554
542
522
510
514
530
546
554
544
526
510
508
518
534
548
546
534
514
504
508
522
540
548
540
524
508
504
514
534
546
546
534
516
504
508
524
542
548
542
526
508
504
520
562
616
660
686
680
654
624
602
584
562
532
500
472
462
470
486
500
504
494
478
470
476
492
514
524
522
506
492
488
500
520
536
540
528
512
502
504
520
542
552
546
530
514
510
520
538
556
558
546
528
518
518
534
552
562
558
542
526
520
530
546
562
566
554
538
524
526
540
558
568
564
546
530
522
528
546
562
566
552
534
520
520
532
552
560
556
540
522
514
520
538
554
556
546
526
512
512
524
542
552
548
530
514
506
512
530
544
550
536
520
504
502
516
534
546
542
526
508
500
506
524
540
544
534
514
500
498
512
530
540
538
524
506
496
502
520
536
540
534
514
500
498
510
528
540
538
524
506
498
502
520
536
542
534
516
502
498
510
530
542
540
528
510
500
504
520
538
544
536
518
502
500
514
530
544
542
530
510
502
506
522
540
548
538
520
506
502
514
532
546
546
530
514
502
506
524
540
548
540
524
506
504
516
532
546
548
532
514
504
508
522
540
550
542
524
508
504
516
534
546
546
534
516
504
508
524
544
550
542
528
510
504
514
534
546
548
536
518
506
508
522
542
548
544
526
510
504
516
534
548
550
536
518
504
508
524
542
550
544
528
510
504
514
532
546
550
538
518
506
508
522
542
550
544
528
512
506
514
532
546
550
538
520
506
508
522
540
550
546
530
512
506
514
532
546
552
538
520
508
508
522
540
552
546
530
512
506
516
532
546
550
540
520
508
508
524
540
552
548
530
514
506
514
532
546
550
538
522
508
506
520
540
550
548
532
514
506
514
532
546
550
540
522
508
508
522
540
550
548
532
514
506
512
530
546
550
542
524
510
506
520
538
550
548
534
514
506
512
528
546
550
542
524
508
508
520
538
550
548
534
516
506
512
530
546
554
546
528
514
514
528
548
560
560
544
526
518
522
538
554
560
550
534
518
514
526
542
554
554
538
520
508
512
528
546
550
544
524
508
506
516
534
546
546
532
514
504
506
524
542
550
542
524
508
504
514
534
546
548
534
514
504
508
524
540
548
542
528
532
568
624
682
710
698
654
600
552
524
516
516
514
500
480
462
458
470
490
508
510
502
486
478
482
502
520
530
526
512
498
494
506
524
540
544
534
514
506
510
524
544
554
550
534
518
512
522
540
558
560
546
530
518
522
532
554
564
558
544
526
520
530
548
564
568
556
536
524
526
540
556
568
562
546
528
522
528
546
560
562
550
534
520
518
532
550
560
556
538
520
512
520
536
552
554
544
524
510
510
522
540
550
546
530
512
504
512
526
544
546
536
518
504
500
516
532
544
540
524
508
498
506
522
540
542
532
514
500
500
512
528
540
538
524
504
496
500
518
536
542
532
514
498
496
508
530
542
540
522
506
498
502
520
538
542
532
516
502
500
512
530
542
542
526
508
500
506
522
540
544
536
518
504
502
514
532
544
544
528
510
502
508
524
540
546
538
520
504
504
516
532
546
544
532
512
502
508
524
540
548
540
524
508
504
516
534
548
546
534
514
504
508
524
542
550
542
524
508
502
518
534
548
546
534
514
504
510
526
540
550
544
526
508
504
516
534
548
548
534
516
506
508
524
542
550
546
526
510
506
516
534
548
550
536
518
506
510
524
542
552
546
526
510
506
516
534
548
548
538
518
508
508
526
540
550
544
528
510
506
514
534
548
550
538
518
508
510
524
542
550
546
528
512
506
514
532
548
550
538
520
508
508
524
542
552
546
530
512
506
514
532
548
552
538
520
508
508
522
540
550
546
532
512
506
514
532
548
550
540
520
508
506
522
540
550
546
532
514
506
512
530
546
552
540
522
508
506
520
540
550
548
532
514
506
514
530
546
550
540
522
508
508
522
540
550
548
532
514
506
512
530
546
550
542
522
508
508
520
540
550
548
532
514
506
512
530
550
556
550
532
520
518
530
550
562
560
542
526
516
522
538
552
558
546
530
514
512
524
542
552
550
536
516
508
512
528
544
550
540
522
508
506
516
538
548
546
530
514
504
510
524
542
548
540
522
506
504
516
534
546
546
532
514
504
510
526
544
570
598
626
652
668
670
658
636
598
554
510
482
474
484
498
502
494
480
466
464
478
500
516
520
508
494
484
490
508
528
538
532
516
502
498
510
530
544
548
536
518
508
512
528
548
558
550
534
520
512
526
544
558
562
548
530
520
522
538
556
566
560
544
526
522
532
550
566
566
554
536
524
526
540
558
566
560
542
526
520
528
544
560
560
550
530
518
518
532
550
558
552
536
518
512
520
536
550
552
538
522
508
508
522
540
548
544
526
508
504
510
528
542
546
532
516
502
502
516
534
544
538
522
506
498
506
524
538
540
532
512
498
500
512
530
540
536
520
504
496
504
520
538
540
528
512
498
498
512
530
542
540
522
506
496
506
522
538
542
532
514
500
500
514
532
544
540
526
508
500
506
524
540
544
536
518
504
502
516
532
544
542
528
510
502
506
526
540
546
538
520
504
504
516
534
546
544
530
514
504
510
526
542
548
538
520
506
504
516
536
546
546
532
514
504
510
526
542
548
538
522
508
504
518
534
548
546
532
514
506
510
526
544
550
540
522
508
506
518
536
548
548
534
516
506
510
526
542
550
540
524
510
506
518
534
548
548
534
516
506
508
526
542
550
544
526
510
504
518
534
548
550
536
516
506
510
526
544
550
544
526
510
506
516
534
548
550
534
518
508
512
526
542
552
544
526
512
506
516
534
548
550
536
520
506
510
524
542
550
544
528
512
506
516
532
548
550
538
520
506
508
522
542
550
546
528
512
506
514
534
548
550
538
520
508
510
524
542
550
546
530
514
506
514
534
546
552
540
520
508
506
524
540
552
546
530
514
506
514
532
548
552
538
520
508
510
522
540
552
548
530
512
508
514
534
552
556
548
530
518
520
532
552
562
558
540
524
516
522
538
554
558
546
528
512
512
524
542
554
550
532
516
506
512
530
548
550
538
520
506
504
516
536
548
544
530
512
504
510
528
544
548
538
520
506
504
516
536
548
548
530
512
504
510
528
560
600
636
660
668
660
646
630
604
572
532
492
470
470
480
498
502
494
478
466
466
482
504
520
522
510
494
486
492
512
530
538
532
516
502
500
512
534
548
548
534
518
508
512
532
550
558
550
534
518
516
528
546
560
560
548
530
518
524
540
560
566
556
542
526
524
534
554
566
568
552
534
522
526
540
558
566
558
540
524
520
528
548
562
562
548
528
516
520
532
552
558
550
534
514
510
520
538
552
552
540
520
506
508
524
542
548
544
526
508
502
512
530
544
546
532
512
500
502
516
534
544
538
522
504
496
508
526
540
544
528
510
498
498
514
532
542
536
520
502
496
504
522
538
542
528
510
498
498
514
534
542
538
522
504
498
506
524
540
544
530
514
500
500
516
532
544
540
524
506
500
508
526
542
544
534
516
502
502
514
536
546
542
526
508
502
510
526
544
548
536
518
504
502
518
536
548
544
528
510
502
510
528
544
548
538
520
504
504
518
536
548
546
530
512
504
508
528
544
550
540
522
506
506
518
538
550
546
530
512
504
510
528
544
550
540
522
508
504
518
538
550
548
532
514
504
510
528
544
550
542
522
508
504
518
536
550
550
534
514
504
512
526
544
550
542
524
508
506
518
536
550
550
534
516
504
510
526
546
552
542
524
508
506
516
536
548
548
536
516
506
508
526
544
552
544
526
510
506
516
534
550
550
536
516
506
508
526
544
552
544
526
510
506
518
534
550
550
536
518
506
508
524
542
552
546
528
510
506
514
536
548
552
538
518
506
510
524
544
552
546
528
512
506
516
534
548
550
538
518
508
508
524
544
554
550
536
520
516
526
544
560
564
550
530
518
518
532
550
560
554
536
518
510
518
536
552
554
544
522
508
510
522
542
550
546
530
510
504
512
528
546
548
538
518
504
506
518
538
548
546
530
