514
536
550
550
534
514
504
508
524
544
552
544
526
508
504
514
534
550
552
536
516
504
508
526
544
552
546
528
508
504
514
536
550
552
536
516
504
508
526
546
554
544
528
510
504
514
534
552
552
536
516
504
508
524
544
552
546
528
508
504
514
534
550
552
538
518
504
508
524
544
554
546
528
510
504
514
534
552
552
538
518
504
508
522
544
552
546
528
510
504
514
534
550
552
538
518
506
508
524
544
552
546
528
510
504
516
534
550
554
540
520
506
506
522
544
554
546
530
510
504
514
532
550
554
538
520
506
508
524
542
554
548
530
512
504
514
532
550
552
540
518
506
508
524
542
554
548
530
512
504
514
534
550
554
544
524
514
514
532
554
564
560
542
522
516
524
542
560
562
548
528
512
514
528
546
556
552
534
514
506
512
532
550
554
540
520
504
504
520
540
550
546
530
508
502
510
528
546
550
538
520
504
504
518
540
550
546
530
510
502
510
530
546
550
542
540
562
608
662
702
704
674
618
562
522
506
506
512
510
496
474
458
460
476
498
516
514
500
482
476
488
508
528
536
526
508
494
496
510
532
546
544
530
510
504
512
530
550
558
548
528
514
512
526
548
562
560
544
524
516
522
542
562
566
558
538
522
520
534
556
568
566
552
530
520
528
546
562
570
558
538
522
520
532
552
564
562
546
524
516
520
538
556
562
550
532
514
512
524
544
556
554
538
516
506
512
528
548
554
542
524
506
502
516
536
550
546
530
510
498
504
522
540
546
538
516
500
498
510
530
544
542
528
506
496
498
518
536
544
536
516
498
494
508
528
542
542
526
504
494
498
518
536
544
534
516
500
496
508
528
542
544
528
508
498
502
520
538
546
538
518
502
498
512
530
544
544
530
510
500
504
520
542
548
540
520
504
500
510
532
546
548
532
512
500
506
524
542
550
542
522
506
502
516
532
548
548
534
514
502
506
522
542
550
544
526
506
502
510
532
548
548
534
516
502
504
524
542
552
544
526
508
502
514
532
550
552
536
516
504
506
522
544
552
546
528
508
504
514
534
548
552
538
516
504
508
524
544
552
548
528
508
504
514
534
548
552
538
518
504
510
522
542
552
548
528
508
504
514
534
548
552
540
518
506
508
522
542
552
548
528
510
504
514
532
552
552
540
518
506
506
522
542
554
546
530
510
504
514
532
550
552
540
520
506
506
522
542
552
550
530
512
504
512
534
550
552
540
520
506
508
522
542
554
548
530
512
504
514
532
548
552
542
520
506
506
522
542
552
550
530
512
504
512
532
548
554
542
522
506
506
522
542
554
550
532
512
504
512
530
548
552
540
522
506
506
520
540
554
550
532
512
504
514
530
548
554
542
522
506
508
522
544
558
556
540
522
514
522
542
560
564
552
534
516
516
528
550
560
556
540
518
510
516
532
550
556
544
524
508
506
518
538
552
548
532
512
502
508
526
546
550
542
520
504
504
516
538
550
548
530
512
502
508
524
546
550
540
520
506
502
516
538
568
602
630
652
664
664
656
638
606
564
520
486
470
474
492
504
502
488
470
462
472
492
512
522
518
500
486
484
500
522
538
538
524
506
496
504
524
544
550
544
526
510
506
524
542
558
560
542
524
514
520
536
556
564
556
538
520
518
530
552
564
566
552
530
520
526
544
562
570
562
544
524
522
532
552
566
566
552
530
518
524
538
558
566
556
536
518
514
524
544
558
558
542
522
510
512
528
548
554
546
530
510
504
516
534
550
550
534
514
502
506
522
540
548
540
522
504
498
508
528
542
544
530
510
496
498
516
536
544
536
520
502
496
506
524
540
542
528
508
496
498
514
534
544
536
518
500
496
504
524
540
542
532
510
496
500
516
536
546
540
520
504
496
506
526
542
544
534
514
498
502
518
538
548
542
524
506
500
510
528
544
548
536
514
502
502
518
538
550
544
528
506
500
512
528
546
548
536
516
502
502
518
540
550
544
528
508
502
510
530
546
550
538
518
504
502
520
538
550
546
528
510
502
512
530
546
550
538
520
504
504
520
538
552
548
530
512
502
512
530
548
552
540
520
506
504
520
540
552
548
534
512
502
510
530
546
552
540
522
506
506
520
540
552
550
532
512
502
512
528
548
552
542
522
506
504
518
540
552
548
532
512
504
510
528
548
554
544
522
506
504
520
538
552
554
534
514
504
510
528
548
554
542
524
506
504
520
538
552
550
534
514
504
510
528
548
554
544
524
506
504
518
538
552
550
534
514
504
512
528
548
554
546
524
508
504
516
538
552
550
534
514
506
512
528
546
554
544
526
508
504
516
538
554
552
536
514
504
508
526
546
554
546
526
508
504
516
536
552
552
536
516
504
508
526
546
554
546
526
508
504
516
538
552
552
538
518
508
512
534
552
564
556
538
520
514
528
548
562
564
548
526
512
516
532
552
560
550
532
512
508
516
538
552
554
540
518
504
506
522
544
552
544
526
506
502
514
532
548
548
536
514
502
504
522
542
552
544
526
508
502
512
532
548
550
536
516
504
518
570
634
688
706
684
640
598
574
558
548
532
506
476
458
458
476
496
508
504
490
474
470
484
506
526
530
518
502
488
490
508
532
544
540
524
506
500
510
532
550
554
544
524
510
512
528
550
562
558
540
520
514
524
544
560
566
552
534
520
520
534
558
568
566
548
528
520
530
548
566
570
558
536
522
522
536
556
568
562
544
524
516
524
542
560
564
550
530
514
514
526
548
560
554
536
516
506
514
532
550
556
542
522
506
502
518
538
550
548
530
510
500
506
524
544
548
536
516
500
498
512
532
544
542
524
504
494
500
520
540
544
532
514
498
494
510
530
544
540
524
504
494
500
520
538
544
534
514
498
496
510
530
544
542
526
506
496
502
520
540
546
536
518
500
498
510
532
546
544
528
508
498
504
522
540
548
540
520
502
500
512
534
548
546
530
512
500
504
524
542
550
540
522
504
500
512
534
548
548
532
512
502
504
524
544
550
542
524
506
500
514
534
550
550
534
514
502
506
524
544
552
544
524
506
502
512
534
550
552
536
516
502
506
524
544
552
546
526
508
502
514
536
550
552
536
516
502
506
522
544
554
544
528
508
504
514
534
550
552
538
516
504
506
522
544
552
546
528
510
502
514
534
550
552
538
518
504
504
524
542
554
550
528
510
502
514
534
550
552
538
520
506
504
524
544
554
546
530
510
504
514
534
550
554
540
518
504
506
522
544
552
546
530
510
502
512
532
550
554
540
520
506
506
522
542
554
548
532
512
504
512
532
550
554
542
520
506
504
522
542
554
550
530
512
504
512
532
548
554
542
520
506
506
520
542
554
550
532
512
504
510
532
548
554
542
522
506
506
518
540
554
550
534
512
504
510
530
548
554
542
522
508
504
520
540
554
552
538
520
512
520
540
560
564
554
534
518
514
530
550
562
560
542
520
510
516
534
552
556
546
526
508
506
520
540
552
550
532
512
502
508
526
544
552
540
522
504
500
514
536
550
548
532
512
502
504
528
544
552
542
522
504
502
516
536
550
550
546
560
592
638
686
704
686
644
586
536
504
496
502
512
506
488
466
456
464
484
506
518
514
496
480
480
494
516
532
534
522
504
492
498
518
538
548
542
524
508
504
516
538
554
556
542
522
510
516
534
554
564
558
538
520
516
526
548
566
566
550
532
520
522
542
562
572
564
546
526
520
530
552
568
570
552
532
520
522
538
558
568
560
540
520
514
524
544
558
562
546
526
510
514
528
548
558
550
532
512
506
514
534
550
554
538
516
502
502
518
538
552
544
526
504
498
508
528
544
546
534
512
498
498
514
534
544
540
520
502
494
504
522
540
542
532
510
496
494
512
534
544
538
520
502
494
502
522
540
544
532
512
496
496
512
532
546
540
524
504
496
504
524
542
546
536
514
500
498
514
534
548
544
526
506
498
506
526
542
550
536
518
502
500
514
536
548
546
528
508
500
506
526
546
548
540
518
502
500
516
536
550
548
530
512
500
506
526
546
552
540
520
504
504
516
536
550
550
532
512
502
508
526
546
552
542
522
504
502
516
536
550
548
534
514
502
508
526
546
554
546
522
506
502
518
536
550
550
534
514
502
508
526
546
552
544
524
508
502
516
538
552
550
536
514
504
510
526
546
554
542
526
506
504
516
536
552
550
536
514
504
508
526
546
556
546
526
508
504
518
536
552
552
538
516
504
506
524
544
552
546
526
508
504
514
534
552
552
536
516
504
508
524
544
554
548
528
508
502
514
534
552
554
538
518
506
506
524
544
554
546
528
510
504
514
534
550
552
538
520
506
506
522
544
554
548
528
510
504
512
534
552
554
540
518
506
508
524
542
554
548
530
510
504
512
532
550
552
540
520
506
508
522
544
554
550
530
510
504
512
532
550
554
542
522
506
508
524
546
560
558
540
522
514
524
542
560
564
552
532
516
514
530
548
562
554
538
516
508
516
534
552
556
542
522
506
506
518
542
552
548
530
510
502
508
526
546
552
540
518
504
502
516
538
552
548
530
510
502
506
526
546
552
542
522
504
504
518
548
594
638
662
672
662
646
630
610
582
546
506
474
462
472
490
504
502
492
472
464
474
496
516
526
518
502
486
486
500
522
538
538
524
506
498
504
524
544
552
544
526
510
506
522
542
558
558
544
524
512
518
536
558
566
558
538
520
518
528
550
566
568
552
532
520
526
544
564
572
562
542
524
518
532
550
566
568
550
530
518
520
538
556
566
556
536
518
514
524
542
558
558
544
522
510
512
526
546
556
548
530
508
504
514
532
550
552
536
514
502
504
518
540
550
540
522
502
498
508
528
544
546
530
510
496
498
514
536
546
538
520
500
492
504
526
540
544
530
510
496
496
514
532
544
538
522
500
494
504
524
540
544
532
512
496
498
514
534
546
540
522
502
496
506
526
542
546
534
512
500
502
514
536
548
544
524
506
498
506
528
544
548
536
516
502
502
514
538
548
546
528
508
498
508
528
544
550
538
518
502
504
518
538
550
546
530
508
502
508
528
546
552
540
520
504
504
516
538
552
548
530
510
502
510
526
546
552
542
520
504
504
518
538
552
550
532
512
502
508
528
548
552
542
522
506
502
518
538
552
548
534
512
502
508
528
548
554
542
522
506
504
516
538
552
550
532
514
502
510
526
546
554
544
524
506
502
518
538
552
552
536
514
504
508
526
546
554
546
524
508
504
518
538
552
550
536
514
504
508
526
546
552
546
526
510
504
516
536
552
552
536
516
504
506
526
546
556
546
526
508
504
516
536
550
552
538
516
504
506
526
544
554
546
528
508
504
516
534
552
552
540
518
504
506
524
544
554
546
528
510
504
516
536
550
552
538
520
504
506
524
544
554
548
530
510
504
514
534
550
552
540
520
504
506
522
544
554
546
530
510
504
514
534
550
554
542
522
510
512
530
552
564
560
540
522
514
524
542
560
562
550
528
514
514
526
548
560
554
534
514
506
514
532
550
554
540
518
506
504
520
540
552
546
528
510
500
510
528
548
550
538
518
504
504
518
538
552
548
530
510
500
510
528
546
552
540
520
514
542
598
664
708
710
670
616
570
542
532
530
520
502
478
458
458
472
494
510
510
498
480
472
482
502
524
532
524
506
492
492
508
528
544
544
528
510
500
510
528
548
556
546
528
512
510
524
546
560
560
544
526
514
520
540
558
566
558
538
520
518
532
554
568
568
554
532
522
524
544
562
570
560
540
524
518
532
550
566
564
550
528
514
520
536
556
562
554
534
516
512
522
542
556
556
540
520
508
510
526
546
554
546
526
506
502
514
534
548
550
534
514
500
502
518
538
548
540
520
502
496
508
528
544
546
530
508
496
498
514
534
544
538
518
500
494
506
526
540
544
528
508
496
498
514
534
544
538
520
502
494
504
524
542
544
532
510
498
498
516
536
546
540
524
504
498
506
526
544
548
534
514
500
502
516
536
548
542
526
506
500
508
528
544
548
536
516
502
502
518
538
550
544
528
508
502
510
528
546
550
538
518
504
504
516
538
550
546
530
510
502
510
528
546
550
540
520
504
502
518
540
552
546
530
512
502
510
528
546
552
540
522
504
504
518
538
550
546
532
512
502
510
528
548
552
540
522
506
504
518
538
554
548
532
514
504
510
528
546
552
542
524
506
504
516
538
552
548
534
514
504
508
528
546
552
544
522
508
504
516
536
550
550
534
514
504
508
526
544
552
544
524
508
504
516
538
550
552
534
514
504
508
526
544
554
546
526
508
506
518
536
550
552
536
516
506
508
524
544
554
546
526
510
504
516
536
550
552
538
518
504
508
524
544
554
546
528
510
504
516
536
550
550
538
518
504
510
524
544
554
546
528
508
504
514
534
550
552
540
518
506
508
524
544
554
546
530
510
506
514
534
552
554
540
520
506
508
524
542
552
546
530
512
504
514
536
552
558
546
528
516
518
534
554
564
558
542
522
514
522
542
558
562
548
528
512
512
526
546
556
552
532
514
506
512
534
550
554
540
520
504
504
518
538
550
548
530
510
502
510
528
546
552
540
518
504
502
516
538
550
548
530
512
502
510
526
546
558
578
600
630
660
680
678
658
618
568
520
488
480
488
502
506
494
476
462
464
478
502
518
518
506
488
482
488
508
530
538
530
512
498
496
510
534
548
548
532
514
506
514
530
550
558
550
532
516
514
526
548
562
562
546
526
518
522
540
560
568
560
540
524
520
534
554
568
570
552
534
522
526
540
562
568
560
540
522
518
528
550
564
564
548
528
516
518
536
552
560
552
534
516
508
520
540
554
554
540
518
506
510
526
544
552
544
526
506
502
512
532
546
546
532
512
500
502
516
538
548
538
522
502
496
506
526
542
544
530
510
496
498
514
532
544
538
518
502
494
504
522
540
544
530
510
496
496
512
534
544
540
520
502
496
504
524
540
544
532
512
498
500
514
534
546
540
526
506
498
506
526
544
546
536
516
500
502
516
536
548
544
528
508
500
508
526
546
548
538
518
502
502
512
536
548
548
528
510
500
508
526
546
550
540
520
504
502
516
538
550
548
530
510
502
508
526
544
550
540
522
504
504
518
536
550
548
532
512
502
510
526
544
552
542
522
506
504
518
536
550
550
532
514
502
510
526
546
552
542
522
506
504
516
536
550
550
534
514
504
508
526
544
552
544
524
508
504
516
536
550
550
536
516
504
508
524
544
552
546
526
508
504
516
536
550
550
536
516
504
508
526
544
552
546
528
508
504
516
536
552
550
538
518
504
508
524
544
554
546
528
510
504
516
534
550
552
538
518
506
506
524
544
552
548
528
510
504
516
534
550
552
538
518
506
506
522
542
552
546
530
510
504
514
534
550
554
540
520
506
506
524
542
552
548
530
512
504
514
530
550
554
540
520
506
506
520
542
552
548
532
512
504
514
530
548
554
540
522
506
506
520
540
552
548
532
514
506
516
536
558
564
550
532
518
518
532
552
562
560
544
522
512
520
538
554
560
548
526
510
510
522
540
556
550
534
514
504
512
528
546
552
540
522
504
502
516
536
550
548
532
512
502
508
526
544
550
542
522
506
502
516
536
550
550
532
514
502
516
560
620
672
698
686
650
614
588
574
558
536
506
476
460
460
478
498
508
502
484
472
470
484
508
524
530
516
496
488
494
512
534
544
536
520
504
500
516
534
552
552
538
520
510
512
532
550
560
552
536
520
516
526
546
562
564
550
530
518
522
536
560
568
562
546
528
522
530
550
568
570
556
534
522
524
538
558
568
560
542
524
516
526
544
560
562
548
528
514
516
530
550
558
552
534
514
506
516
534
550
552
540
520
506
504
520
540
550
546
526
508
500
508
526
544
546
534
516
500
500
514
534
544
540
524
504
496
504
524
538
544
532
512
498
496
510
530
544
540
522
502
494
500
522
538
542
534
514
498
496
510
530
544
540
524
504
496
502
522
540
546
536
516
500
500
510
532
546
544
528
508
498
504
520
542
548
536
520
502
500
512
532
546
546
530
510
500
506
524
542
548
540
522
504
502
514
534
548
548
532
512
502
506
524
542
550
542
522
506
504
514
534
548
548
534
514
502
506
522
544
552
542
524
506
502
514
534
552
550
534
516
504
506
524
544
552
546
526
508
502
514
534
550
550
536
516
504
508
522
542
554
546
528
508
504
512
534
548
550
538
518
504
508
524
542
552
548
528
510
502
512
532
550
552
538
518
506
506
522
542
552
546
530
512
504
512
532
548
554
540
520
506
508
520
544
554
548
530
512
504
512
532
550
554
542
520
506
506
520
540
552
550
532
512
504
512
530
550
554
540
522
506
508
518
540
554
550
534
512
504
512
530
548
554
544
522
508
504
518
540
552
550
534
514
504
510
530
550
554
542
526
506
506
520
540
552
550
534
514
504
508
528
548
554
546
524
508
504
518
540
552
550
536
516
504
510
528
548
554
544
526
508
506
518
540
554
554
540
522
512
520
536
556
564
556
536
520
514
528
548
560
560
544
524
512
514
532
550
558
548
530
510
506
518
536
552
552
538
516
502
504
524
542
550
544
526
506
502
512
534
548
550
534
514
502
506
522
540
550
544
526
508
502
514
532
548
552
542
546
574
622
674
704
698
660
604
550
514
500
504
512
508
492
472
456
460
478
502
516
514
498
482
478
488
510
532
536
526
506
494
496
512
534
548
544
526
510
504
514
532
552
556
544
528
512
514
528
550
562
560
542
524
516
524
544
562
568
556
534
520
520
538
556
570
568
550
530
520
526
546
564
570
556
538
522
520
532
554
568
564
544
524
514
520
538
556
562
550
530
514
510
524
544
556
556
538
516
506
510
528
546
552
542
522
504
502
516
534
548
546
530
508
498
502
522
540
546
538
518
500
496
510
530
544
542
528
506
496
500
516
536
544
536
516
498
496
508
528
542
540
526
506
494
498
516
536
546
536
518
498
496
506
528
544
546
528
510
496
500
518
536
546
538
520
502
496
510
528
544
546
530
512
500
502
520
538
548
542
522
506
498
508
528
546
548
536
514
500
504
520
540
550
544
526
508
502
510
530
544
548
536
518
502
504
520
540
552
546
530
508
502
510
530
546
550
542
518
504
504
520
540
550
548
528
510
502
512
528
548
550
540
520
506
502
518
538
552
546
532
510
502
510
530
548
552
540
520
506
504
518
540
552
548
532
512
502
510
528
548
552
542
522
506
504
518
538
550
550
532
514
502
510
528
546
554
544
524
506
504
516
538
552
552
536
514
504
510
526
546
554
544
524
508
504
518
538
552
550
534
516
504
510
526
546
554
544
526
508
504
518
536
552
552
536
516
504
508
526
546
554
546
526
508
504
514
536
552
552
538
516
504
508
526
544
556
548
528
510
504
516
536
550
552
536
518
506
506
526
544
554
548
528
510
504
514
534
552
552
540
518
506
506
524
544
552
548
528
510
504
516
534
550
552
538
518
506
510
520
544
554
548
530
512
504
514
538
554
560
548
530
516
518
532
554
566
560
540
522
514
520
540
556
560
548
528
512
510
524
544
554
550
534
514
504
512
528
548
552
542
520
504
502
518
538
550
546
530
510
502
508
526
546
552
540
520
504
502
516
538
550
548
530
512
502
508
530
570
618
652
670
668
654
634
618
596
564
524
488
466
466
482
498
506
496
480
468
466
482
504
522
524
512
492
484
492
512
532
540
534
516
500
500
514
534
550
552
538
518
506
512
530
550
560
552
534
518
514
524
546
562
564
550
528
518
522
538
558
568
560
544
526
522
530
550
568
570
556
534
520
522
540
558
568
560
544
522
518
528
546
562
564
548
528
514
516
532
550
560
554
534
516
508
516
536
552
554
542
520
506
506
520
540
552
546
528
508
500
508
528
544
548
534
514
498
500
514
534
546
540
524
502
496
504
522
540
544
532
512
496
498
510
530
544
540
522
504
494
502
520
538
542
532
512
498
496
510
530
544
540
524
504
496
500
522
540
546
534
516
500
498
512
532
546
544
528
508
498
504
522
542
548
538
518
502
500
512
534
548
546
530
510
500
504
524
542
550
540
522
504
502
512
532
548
548
532
512
502
504
522
542
550
542
522
504
502
514
534
550
548
534
514
502
506
524
542
550
544
526
506
502
514
534
550
552
536
516
502
506
522
544
552
546
526
508
502
512
534
550
552
538
518
504
506
522
542
554
546
528
