494
502
499
488
477
472
476
487
500
509
508
499
488
480
480
488
501
513
516
509
497
487
484
490
502
514
521
517
506
493
487
490
500
513
522
523
514
502
492
491
498
510
520
523
517
504
492
488
494
505
516
520
516
504
493
485
487
496
508
516
515
505
492
482
481
488
501
510
511
504
492
480
476
481
492
503
507
503
492
480
473
474
484
496
504
504
494
480
469
468
477
490
499
500
494
482
471
466
471
483
495
499
495
483
471
464
467
477
490
498
497
488
475
466
465
473
485
495
498
492
479
467
463
469
481
493
498
494
483
471
465
467
477
489
497
497
488
476
467
466
474
487
497
499
492
480
469
466
471
483
495
501
497
485
473
467
470
480
493
502
501
491
478
469
469
478
490
499
501
495
484
474
469
474
486
497
503
499
488
476
469
471
482
495
503
502
493
480
471
470
479
491
502
505
498
486
475
470
475
488
500
505
501
491
478
471
474
484
496
504
504
495
482
473
472
480
493
504
507
500
487
475
471
476
488
501
507
503
491
479
472
474
484
497
505
504
496
484
474
473
481
493
503
506
500
488
476
471
477
489
501
506
503
492
480
472
473
484
497
507
506
497
484
474
473
480
493
503
506
500
488
477
472
477
489
501
507
503
492
479
473
475
485
497
506
505
497
484
474
473
480
493
504
507
500
488
477
473
478
490
502
507
503
493
481
474
476
486
499
507
507
499
487
479
479
489
502
514
517
512
500
488
484
488
499
511
517
513
501
488
481
482
492
504
512
511
502
488
478
476
483
495
505
507
502
490
477
471
475
487
499
506
501
489
477
470
472
481
493
502
504
495
482
472
471
479
492
502
504
497
486
476
471
476
488
499
504
501
491
487
499
533
582
629
657
654
626
583
541
510
492
484
480
473
460
445
432
427
433
447
461
470
468
460
450
445
449
461
476
487
489
482
471
463
463
471
485
497
503
498
487
476
473
479
491
503
510
508
498
486
480
483
493
506
514
515
506
494
486
485
493
506
516
520
515
504
493
488
492
503
515
523
520
510
498
490
492
501
513
522
522
513
500
490
488
495
507
518
520
513
501
489
483
487
498
510
516
513
501
488
481
482
491
503
510
509
501
489
478
476
483
495
505
507
501
489
477
472
475
486
498
505
501
489
476
469
470
480
493
500
500
491
478
469
467
474
486
496
499
493
480
469
465
470
480
492
498
495
485
473
465
466
475
487
496
497
489
477
467
465
472
484
494
498
492
480
468
463
468
480
493
499
495
484
472
465
467
476
489
498
499
491
478
468
466
474
486
497
501
495
484
472
467
471
483
495
501
499
489
477
468
470
479
492
501
501
493
480
471
470
477
489
501
505
499
487
475
470
473
485
498
505
501
491
478
471
472
482
494
503
503
494
482
472
471
478
490
500
504
499
488
478
474
477
487
497
501
497
490
482
476
477
484
494
501
501
494
485
478
477
482
490
498
501
497
488
479
476
480
488
497
502
500
491
482
476
477
485
495
502
502
496
486
478
477
482
492
501
503
497
488
480
477
481
490
497
502
500
492
482
476
477
485
495
502
501
495
485
479
478
484
493
501
503
497
488
480
477
481
491
499
503
499
491
482
477
478
486
497
503
503
495
484
475
474
480
492
502
505
500
490
481
477
481
490
499
505
503
496
487
483
487
496
506
514
514
506
495
486
484
491
503
513
516
509
497
486
480
483
493
505
512
509
498
485
476
477
486
497
505
506
497
484
474
472
478
490
501
505
500
488
475
470
475
486
497
504
501
492
479
471
472
482
495
503
504
496
484
474
471
477
489
501
504
499
492
496
521
564
611
646
657
640
602
558
519
493
480
476
473
466
454
440
430
429
437
451
464
470
467
459
450
448
453
466
479
488
488
480
470
463
465
475
489
499
503
497
485
475
473
481
495
507
512
507
496
485
480
484
496
508
515
514
505
492
485
486
496
508
517
519
513
502
492
488
494
507
518
523
519
508
495
489
493
503
515
522
520
511
498
490
490
498
510
518
519
512
499
487
484
490
501
511
515
510
498
486
480
483
493
505
511
509
499
486
477
476
485
497
505
506
498
485
475
471
477
489
500
503
498
487
475
469
472
482
493
500
499
489
477
469
469
476
488
496
498
490
479
468
465
470
482
493
498
493
482
470
465
468
478
490
497
495
486
474
465
466
475
486
495
496
488
476
467
465
471
482
493
497
493
482
471
466
469
479
491
499
497
487
475
467
469
478
490
498
500
492
480
471
468
474
485
496
500
496
486
475
469
472
482
494
502
500
490
478
470
471
479
491
500
501
495
483
473
470
475
487
498
504
501
489
477
471
474
484
496
503
502
492
480
472
472
480
492
502
504
497
485
475
471
478
489
500
504
500
489
478
471
474
484
496
503
502
494
482
474
474
483
494
503
504
497
485
476
473
478
490
501
506
502
491
479
474
477
487
499
505
503
494
483
474
474
483
494
504
506
499
486
475
472
479
491
501
505
501
491
479
472
475
486
498
506
504
494
482
474
474
482
493
503
506
499
486
477
474
480
491
502
507
504
492
480
473
476
486
499
506
505
497
484
475
475
483
496
505
506
499
486
477
474
479
490
501
506
503
492
480
473
476
486
499
506
504
495
483
475
474
482
495
505
506
499
487
477
475
481
492
503
507
503
492
480
474
478
488
499
505
505
497
484
475
474
482
495
505
506
499
487
477
474
480
491
502
507
503
492
480
474
477
487
499
507
506
496
484
476
477
486
500
512
515
509
498
488
485
491
502
513
517
512
502
490
484
485
494
505
512
511
501
488
480
479
487
497
506
507
500
487
477
474
480
490
501
506
501
490
478
472
475
485
496
503
502
493
481
472
471
479
491
500
503
496
484
475
472
478
488
499
504
501
490
479
472
474
490
521
561
598
624
633
625
606
585
564
542
518
491
465
445
436
437
445
456
462
460
451
441
437
442
456
471
480
481
474
464
457
459
469
483
494
497
491
481
472
470
477
489
501
506
502
492
482
478
482
493
505
513
512
503
492
484
484
492
505
515
518
511
500
490
487
493
505
516
521
517
507
496
490
494
503
515
522
520
511
499
491
490
498
509
518
520
513
501
490
487
491
502
512
517
512
502
490
483
484
493
505
513
512
501
488
479
479
487
498
507
508
500
489
479
474
478
489
500
506
502
490
477
470
473
482
494
502
501
491
478
469
468
477
489
497
499
492
481
470
466
471
482
493
499
495
483
471
464
467
477
490
497
496
487
474
465
464
473
486
496
497
490
479
467
463
468
480
492
497
494
484
472
465
468
479
491
499
498
489
476
467
467
476
488
497
499
493
482
471
467
472
484
495
501
497
486
474
468
471
480
492
501
500
490
478
470
470
478
490
499
502
495
484
474
471
476
487
498
503
499
489
477
470
473
483
495
503
502
493
481
472
471
479
491
502
504
497
485
475
470
475
487
499
505
501
490
478
473
476
484
496
504
503
495
482
473
472
481
493
503
504
497
486
476
472
477
488
500
505
501
490
478
472
474
483
496
504
503
495
484
474
473
480
493
503
505
499
488
477
473
478
490
501
506
503
492
480
473
475
485
497
505
504
496
484
474
473
481
493
503
505
499
487
477
473
478
490
502
508
505
493
481
475
477
487
499
507
506
497
484
475
474
482
493
503
506
501
490
480
478
485
498
511
517
514
505
492
485
487
496
507
515
515
506
494
483
481
488
499
509
511
505
493
481
476
481
491
502
507
503
492
480
472
473
483
495
503
503
495
482
472
471
479
491
501
503
497
485
475
471
476
488
498
504
501
491
479
472
474
484
497
505
503
494
483
485
509
552
603
643
658
643
607
565
529
505
492
486
479
468
452
436
428
430
441
456
466
468
462
452
446
448
458
472
483
487
483
474
464
461
468
481
493
500
498
489
478
472
476
487
500
508
509
501
489
481
481
489
502
512
515
510
498
488
485
490
501
513
520
517
507
496
488
490
500
513
522
522
513
501
492
490
498
510
519
521
514
503
492
488
492
503
515
520
516
505
493
485
487
496
508
515
514
505
492
483
482
489
501
510
511
505
493
481
476
479
489
501
506
503
493
480
473
474
484
495
502
502
494
481
471
469
477
489
498
500
494
482
471
466
471
482
493
499
495
484
472
465
467
477
489
497
497
489
476
466
464
471
484
494
497
492
481
469
464
470
482
493
498
495
484
472
464
467
477
489
497
497
489
476
467
467
475
487
496
499
493
482
471
466
471
482
493
499
497
487
475
468
470
479
491
499
499
491
480
471
469
476
488
499
502
496
484
473
469
474
485
496
502
499
489
477
470
472
481
493
502
502
493
481
472
470
478
491
501
504
497
486
475
471
475
485
498
505
501
491
479
472
473
482
495
503
502
494
482
474
473
480
491
501
504
499
488
477
472
477
488
499
505
503
493
480
473
474
484
495
503
503
496
484
475
473
480
492
503
506
502
490
479
473
478
488
499
505
503
493
480
473
474
484
497
505
504
496
484
475
474
481
493
503
505
499
488
477
473
478
490
501
506
503
493
482
475
476
485
497
505
505
496
484
475
474
481
493
504
507
501
488
476
473
478
490
501
506
503
493
481
474
476
486
497
505
505
497
484
475
474
482
494
504
507
500
488
478
474
479
490
501
506
503
492
481
474
476
485
497
505
505
497
485
475
474
481
493
503
506
500
489
478
474
479
489
501
507
504
494
482
477
480
492
505
514
515
507
496
487
486
493
505
515
518
511
499
487
482
486
496
507
512
509
499
486
478
479
488
499
507
507
499
486
475
473
481
492
502
505
499
487
475
471
476
487
499
504
500
489
478
471
473
482
495
504
503
494
482
473
472
480
492
502
505
499
486
475
473
489
525
573
618
644
645
624
593
563
540
523
509
491
470
449
434
430
437
450
460
464
461
452
444
441
448
462
476
485
483
474
464
459
462
473
487
497
499
491
480
471
471
479
492
504
509
504
492
482
479
484
496
508
514
512
502
491
484
486
496
508
517
518
511
500
490
488
494
507
518
522
517
505
494
490
494
505
517
523
520
510
497
489
490
499
511
519
519
510
497
487
485
493
505
514
517
510
498
486
481
485
496
507
512
509
499
486
477
478
487
499
507
506
497
485
475
473
480
491
501
503
497
486
474
469
473
484
495
501
497
487
476
468
470
478
490
498
499
490
477
467
466
473
485
494
497
491
480
469
465
468
479
491
498
495
484
472
465
467
476
487
496
496
488
476
467
465
472
484
494
497
492
481
469
465
470
482
493
499
496
486
474
467
468
477
489
498
498
490
478
470
469
476
486
497
500
495
484
472
467
472
483
495
501
498
488
476
469
472
481
493
501
501
494
482
472
469
476
489
499
503
497
486
475
470
475
486
497
504
501
491
478
471
472
482
495
503
504
496
483
473
472
479
491
501
504
498
487
476
471
476
488
499
505
503
494
482
473
474
484
496
504
504
496
484
474
471
478
490
501
504
499
488
478
473
477
488
500
506
503
493
480
473
474
484
497
505
504
496
484
474
473
480
492
503
506
500
488
477
472
477
488
500
506
503
492
480
473
474
484
497
505
505
497
485
475
473
481
494
504
506
499
487
477
473
478
490
501
507
504
494
483
477
480
491
505
515
516
508
495
486
485
492
504
514
517
510
498
486
482
486
496
507
512
509
498
485
478
479
488
499
507
506
497
484
474
473
480
492
502
505
498
486
475
470
475
485
497
504
502
492
479
471
472
482
495
504
503
494
482
473
472
479
491
501
505
499
487
476
478
502
545
596
636
654
644
613
575
543
523
509
497
481
463
445
432
429
436
449
461
466
462
453
444
443
450
463
476
484
483
474
464
459
462
473
487
497
499
492
481
473
473
482
494
504
507
503
493
483
478
483
495
507
514
512
502
491
485
486
496
509
518
519
510
498
489
488
496
508
519
523
518
507
495
490
494
505
517
523
519
508
496
488
490
498
510
518
519
510
498
488
486
493
504
514
517
510
498
486
481
485
496
507
512
508
497
484
476
477
487
500
507
506
497
485
475
473
480
491
501
504
498
486
474
469
474
485
496
502
498
488
476
468
469
478
489
498
498
490
478
468
466
473
485
495
497
491
480
469
465
469
480
491
497
493
484
472
465
466
475
488
497
497
488
476
467
465
472
484
495
499
493
480
469
465
470
482
493
499
495
485
474
467
469
478
490
498
499
491
479
470
467
474
486
498
501
495
484
473
468
473
484
496
502
499
489
477
469
470
480
493
503
503
494
481
471
469
476
489
499
503
498
487
475
470
475
486
497
503
501
491
479
472
473
483
495
503
503
495
482
473
472
478
490
501
506
500
487
475
471
476
487
498
505
502
491
479
472
474
483
495
503
504
496
484
474
472
480
493
503
505
500
489
478
473
476
486
498
505
502
492
480
473
474
484
496
505
507
498
484
474
473
480
492
503
506
499
487
477
472
477
487
499
506
504
493
480
473
474
484
497
506
506
498
485
475
473
481
493
503
506
501
489
477
472
477
488
500
506
505
495
484
478
481
493
506
515
515
508
497
487
485
492
504
514
516
510
498
486
481
485
495
506
511
508
497
485
477
477
486
498
506
506
498
485
475
472
479
491
501
505
498
486
475
470
475
486
498
504
501
490
478
471
473
482
495
503
503
495
482
473
471
478
490
501
505
499
486
481
496
533
583
630
657
654
624
582
543
515
499
490
483
472
457
441
430
428
436
450
463
468
466
458
449
445
451
465
479
487
486
477
467
462
465
475
489
499
501
493
482
473
472
480
493
505
509
504
493
482
479
484
497
509
516
513
503
492
485
487
496
508
517
519
511
499
490
488
496
508
519
523
518
507
496
490
494
505
517
523
520
509
496
488
490
498
510
518
518
509
497
487
484
491
503
512
515
509
497
486
481
484
494
506
511
507
497
484
477
478
487
499
507
506
497
484
474
472
479
491
501
504
498
485
473
468
473
484
495
500
498
488
476
468
468
478
490
498
499
491
478
467
465
473
485
495
498
492
480
469
465
468
479
491
497
494
484
472
465
467
476
488
496
496
488
476
467
465
472
484
494
498
493
481
469
465
470
481
494
500
497
487
475
467
468
477
490
499
499
490
478
469
467
475
487
497
501
496
485
473
469
474
485
497
503
499
489
476
469
470
481
494
502
502
494
481
471
469
477
490
500
504
498
486
475
470
475
486
497
502
499
490
479
471
471
481
495
503
503
495
484
474
472
479
492
502
506
500
488
476
471
476
488
499
504
501
491
479
472
474
483
495
503
504
496
484
474
473
480
491
501
504
500
489
477
472
477
489
502
509
506
498
488
482
484
494
507
516
515
507
495
485
484
490
501
511
514
507
494
482
478
482
492
503
508
505
495
482
474
475
485
498
505
504
496
484
475
472
478
490
500
503
497
485
475
471
475
485
496
503
500
490
478
471
473
482
495
503
502
494
482
473
472
479
491
500
508
517
535
561
594
624
641
638
616
581
539
500
471
455
453
458
462
460
452
440
431
432
442
457
470
475
472
462
453
451
457
471
485
493
491
482
471
465
468
479
493
502
504
497
486
477
476
484
497
507
511
507
497
487
482
487
498
510
516
514
505
492
485
488
498
510
519
520
512
500
490
489
497
510
520
523
517
505
494
489
494
505
516
521
518
507
495
488
489
498
510
518
517
508
495
485
483
490
502
512
514
507
495
484
479
482
492
504
510
507
496
483
476
477
486
497
505
504
496
483
473
471
478
490
500
503
497
484
473
468
472
482
494
500
497
486
474
467
468
477
489
497
497
489
477
467
465
472
484
494
497
491
480
469
465
470
480
491
497
493
484
472
465
465
475
488
497
497
489
476
467
466
473
485
495
499
493
480
469
465
470
482
493
499
496
486
474
467
469
478
491
500
500
491
478
469
468
475
488
498
501
495
484
473
469
474
485
497
502
499
489
477
469
470
480
493
501
502
494
482
474
473
480
493
505
510
505
495
485
481
485
496
508
514
511
501
488
481
482
490
502
510
510
501
488
477
475
481
493
504
507
501
489
477
472
476
486
497
502
499
489
478
471
472
481
493
501
501
493
481
471
469
477
489
498
501
497
486
474
469
474
486
497
503
501
491
479
471
472
485
514
551
589
618
630
626
610
590
569
548
524
497
468
446
434
433
442
453
460
460
452
442
437
441
453
467
478
481
476
466
457
457
465
480
492
497
493
482
472
469
474
486
499
506
505
495
484
478
480
489
502
513
514
506
493
484
483
490
503
514
517
512
501
490
486
491
502
514
520
518
509
498
490
491
501
514
522
521
513
501
491
488
496
508
517
520
514
502
491
486
490
501
512
517
513
503
490
482
482
491
503
511
511
502
490
480
478
484
495
505
508
502
490
479
474
478
488
499
504
501
490
478
470
470
479
492
501
501
492
479
469
467
474
486
496
499
493
482
470
465
469
480
493
499
495
484
472
465
467
476
488
496
496
487
475
465
463
472
485
496
498
492
479
468
464
468
479
491
497
495
485
473
465
467
476
488
496
497
489
478
469
467
474
486
497
500
494
483
471
467
472
482
494
500
497
488
476
469
471
480
492
500
500
492
480
471
469
476
488
499
503
497
486
474
469
474
485
497
503
500
490
478
470
472
481
494
502
503
495
482
473
470
477
489
501
505
499
488
476
471
476
488
500
504
501
491
479
471
472
482
495
503
504
497
484
474
472
479
491
502
506
501
489
477
471
476
487
499
506
504
494
481
472
473
483
496
505
504
496
484
474
472
479
492
503
506
501
490
478
473
477
488
500
507
503
493
481
474
475
484
497
505
505
496
483
474
473
480
492
503
506
501
490
478
473
478
488
500
508
505
494
480
473
474
484
496
505
506
498
486
476
475
482
496
510
514
509
498
487
484
489
500
511
518
514
503
490
482
483
492
504
513
512
503
490
480
477
484
496
506
509
502
490
479
474
478
488
499
506
503
492
479
471
472
482
495
503
502
494
482
473
471
478
489
500
503
498
487
476
471
476
487
498
505
502
491
479
472
472
482
505
538
575
605
624
627
617
601
582
561
536
506
475
450
436
436
444
455
461
460
452
441
435
439
452
468
479
481
475
465
457
457
465
479
492
497
493
482
471
468
473
486
499
506
505
495
484
477
479
490
504
513
514
506
494
484
483
490
502
514
519
514
502
490
486
491
502
515
521
519
509
497
490
492
502
514
522
523
514
501
491
488
495
507
518
521
516
504
491
485
488
499
511
518
515
504
491
482
483
491
504
512
512
504
491
481
478
485
497
507
510
503
491
478
473
477
487
500
506
503
491
478
470
471
480
492
501
502
493
480
469
467
474
487
497
500
495
483
471
465
469
481
493
499
495
485
473
465
467
476
489
498
497
488
477
467
465
470
482
493
497
491
480
469
464
467
478
491
498
496
485
473
465
467
476
489
498
499
491
479
469
465
472
486
497
500
494
483
472
467
471
482
494
500
497
488
476
468
469
478
491
501
501
493
480
471
469
476
488
499
503
497
486
474
469
473
484
497
504
501
491
479
470
471
480
493
503
504
495
482
472
470
477
489
501
505
499
487
475
470
475
486
498
504
502
492
480
472
473
482
495
504
504
496
484
474
471
478
491
502
506
501
489
477
471
476
488
499
505
503
493
481
472
473
482
495
505
506
498
485
474
472
479
492
503
506
500
488
477
472
477
487
499
506
504
494
482
474
475
484
496
505
506
498
485
475
473
479
491
502
506
502
490
478
472
476
488
501
508
505
495
482
473
474
484
496
505
506
499
486
476
474
482
496
508
513
509
499
488
483
488
499
511
518
515
505
492
483
483
491
504
513
513
504
492
482
479
484
496
506
510
504
492
479
473
476
486
499
506
503
492
480
472
472
480
492
502
502
494
482
472
470
477
490
500
504
499
488
476
471
475
486
498
505
503
493
481
472
472
481
501
531
565
596
618
626
622
608
590
568
542
512
482
456
439
436
444
454
460
460
452
441
435
438
450
466
477
480
475
466
457
456
464
478
491
497
493
483
472
468
473
485
498
506
505
495
484
477
478
488
501
512
514
507
494
484
482
489
503
514
518
513
503
491
485
490
502
515
522
520
510
497
490
491
501
513
522
522
514
502
492
489
495
506
518
522
517
505
492
486
489
500
511
517
515
505
492
483
483
491
503
512
513
505
493
481
478
484
495
505
509
504
492
479
473
476
487
498
504
501
491
479
470
470
479
492
501
501
493
480
470
467
473
485
497
501
495
482
470
465
469
480
492
499
497
487
474
466
466
475
487
497
498
490
477
467
465
470
482
493
499
494
482
469
463
467
478
491
497
496
486
473
465
465
474
487
497
498
490
478
469
467
472
484
495
500
495
484
472
466
470
481
493
500
498
489
477
470
470
479
491
499
500
493
481
471
468
475
487
498
502
497
486
474
469
473
483
495
503
501
491
479
470
471
480
493
502
503
495
483
473
470
477
489
500
504
500
490
477
471
474
484
497
505
504
494
481
472
471
480
494
504
505
497
484
474
471
477
489
502
507
501
489
478
473
476
486
497
505
504
494
482
473
473
482
494
504
506
498
486
475
473
479
491
503
507
501
490
478
473
476
486
499
506
503
493
482
474
474
483
495
505
507
499
486
475
472
478
490
502
506
502
491
479
472
476
487
500
507
505
495
483
474
475
484
496
506
507
499
487
477
474
481
494
507
513
509
499
488
483
486
498
511
518
516
506
493
484
483
492
504
513
513
505
492
481
478
483
494
505
510
505
493
481
474
477
487
499
506
504
494
481
472
471
480
492
501
503
496
485
474
471
476
488
499
504
499
488
476
471
475
485
496
504
503
493
481
472
471
480
498
526
559
590
614
625
624
612
594
573
547
517
484
457
440
436
443
454
461
461
453
443
436
438
449
465
476
480
475
465
457
455
463
476
489
495
491
482
472
468
472
484
497
506
506
498
485
477
478
487
501
512
514
507
495
485
482
488
501
513
518
514
503
492
486
490
500
513
521
520
511
499
491
490
498
511
521
523
514
502
492
488
494
505
517
522
518
505
492
486
489
499
511
517
515
505
493
484
483
491
503
513
514
506
493
482
478
483
494
505
509
505
493
480
473
476
486
497
504
503
493
480
471
470
479
491
501
503
495
481
470
468
474
485
496
501
496
485
472
465
468
479
491
497
495
487
475
466
466
474
486
495
497
490
478
467
463
469
481
493
498
493
482
470
463
467
478
491
498
496
487
474
465
465
474
487
497
499
492
479
468
465
472
484
496
500
496
484
472
467
471
482
494
500
499
490
478
469
468
477
490
500
503
495
482
472
469
475
487
498
503
499
488
476
470
473
482
495
502
501
493
480
471
470
479
