536
512
514
538
540
514
512
536
542
518
510
548
626
674
654
614
568
510
472
482
500
490
474
490
518
512
494
504
532
530
508
514
540
544
520
518
544
554
530
522
546
560
538
524
544
560
544
528
544
564
550
528
536
560
552
526
532
554
550
526
524
546
548
524
516
538
546
522
512
532
544
524
508
524
542
524
504
518
540
526
504
512
536
530
504
508
532
534
506
504
528
532
510
502
526
536
516
502
522
538
520
502
518
540
524
504
516
538
532
506
514
538
534
508
512
536
538
514
510
536
540
518
508
530
542
524
508
528
544
528
510
524
544
530
508
522
542
536
512
518
540
538
514
514
538
542
516
510
534
544
522
510
532
546
524
510
528
546
528
510
524
544
534
512
520
544
538
512
518
542
542
516
514
538
544
520
512
534
546
524
510
532
546
528
512
528
546
532
512
524
546
534
514
518
544
540
514
516
542
542
518
514
538
544
520
512
534
548
526
512
530
546
530
510
526
546
532
512
522
546
536
512
518
542
540
518
522
550
552
530
524
548
556
532
520
540
552
534
514
532
548
530
510
524
544
530
510
518
542
536
510
514
540
538
514
512
536
540
518
528
622
696
662
590
550
526
488
466
482
504
494
480
496
522
518
498
508
536
532
510
516
544
544
522
520
546
554
530
522
546
560
538
524
544
562
546
528
544
562
548
526
536
560
550
526
532
554
550
524
522
546
548
522
514
538
544
522
512
530
544
524
506
524
540
524
504
518
538
528
504
512
536
528
504
508
532
530
506
506
530
534
510
504
526
536
514
502
524
538
520
502
522
538
526
504
518
540
530
506
514
538
534
508
512
536
534
514
510
534
540
518
508
532
542
522
508
526
544
526
508
524
546
530
510
522
542
534
512
516
542
540
512
514
540
542
516
510
534
544
520
510
532
546
526
510
528
546
530
510
526
546
532
512
522
544
536
514
516
542
540
516
514
538
544
518
512
536
546
524
510
532
546
526
510
528
546
530
512
524
546
536
512
518
544
538
514
518
542
542
518
514
538
544
520
512
536
546
524
512
530
546
528
510
528
546
532
512
524
544
536
512
520
544
544
522
526
552
552
530
524
548
554
530
518
540
552
528
512
530
546
528
508
524
542
532
508
518
542
534
512
516
540
536
514
512
538
540
540
606
690
680
594
526
508
506
480
464
486
510
500
484
504
528
520
500
512
538
534
514
518
546
546
524
522
548
552
532
524
546
558
536
526
546
564
544
526
544
562
546
526
538
558
548
524
530
552
548
522
522
544
546
520
514
538
544
520
510
530
542
520
506
526
540
522
504
518
538
526
504
514
534
528
504
508
532
532
506
506
530
532
510
504
528
536
514
504
524
540
518
502
520
540
524
504
518
540
530
506
514
540
532
510
512
538
536
512
512
534
540
516
508
532
544
520
508
528
544
526
508
524
544
530
510
522
544
534
510
516
542
536
512
516
540
540
516
512
538
544
520
510
532
544
524
510
530
546
528
508
526
544
532
510
522
544
534
512
518
544
540
516
514
540
542
518
514
536
546
522
510
532
546
524
510
528
546
530
510
524
546
536
512
522
544
540
514
518
542
542
516
516
540
544
520
514
536
546
524
512
532
546
526
512
528
548
532
512
524
546
536
512
522
546
546
524
526
554
552
528
524
546
552
528
518
538
548
528
512
530
546
526
510
524
544
532
510
518
542
534
510
516
540
538
514
516
538
568
618
668
668
612
532
486
492
500
482
470
492
516
504
490
508
532
522
504
514
542
538
516
522
548
548
524
524
550
554
532
526
548
560
540
526
550
566
544
526
542
560
546
524
536
558
546
522
530
550
544
520
522
546
544
518
516
538
542
520
510
530
542
520
506
524
540
520
502
518
538
526
502
512
536
526
504
510
534
530
504
506
530
534
508
504
528
538
514
504
526
538
518
504
522
540
524
506
520
542
528
506
516
540
534
510
514
538
536
512
512
536
540
518
510
532
542
522
508
528
542
526
508
526
544
530
508
522
546
534
510
518
542
538
512
516
540
540
516
512
538
542
520
512
534
544
522
510
530
546
528
510
526
546
534
510
522
544
536
512
518
542
540
516
514
540
542
518
514
536
544
522
510
534
546
526
510
530
546
530
510
526
544
534
512
520
544
536
514
520
542
540
516
514
540
542
518
514
536
544
524
512
532
546
528
512
528
546
532
510
524
546
536
514
522
550
548
524
530
552
552
526
522
546
550
524
514
538
548
526
510
530
544
528
508
524
544
528
508
520
542
534
512
518
540
536
512
514
572
648
674
640
600
554
496
470
488
500
484
476
498
520
508
492
512
536
526
506
518
544
538
518
524
550
548
526
524
550
556
532
526
552
562
538
528
550
562
542
526
542
560
546
524
536
558
546
522
530
550
544
518
520
544
544
518
514
538
544
516
508
532
542
518
504
526
540
520
502
516
538
524
502
514
536
528
504
510
534
530
506
506
530
532
508
504
530
536
512
504
526
540
518
504
522
540
524
506
520
540
528
506
516
540
534
510
512
538
536
512
510
536
540
514
510
532
540
520
508
530
544
526
508
528
544
530
508
524
544
532
510
520
544
536
514
514
540
540
516
512
538
542
520
512
534
544
522
510
530
546
528
510
526
546
532
512
524
546
536
512
518
544
540
514
516
540
542
518
514
538
544
522
512
534
544
524
510
528
546
530
510
526
546
532
512
522
544
536
514
518
542
540
516
516
540
542
518
514
538
546
524
512
532
546
526
512
528
546
532
510
524
546
536
516
528
554
550
526
528
554
550
526
522
546
550
522
514
536
546
522
510
530
544
526
508
524
544
530
508
520
544
534
510
518
540
536
514
552
652
700
640
570
542
516
478
466
488
504
490
480
504
524
512
496
514
538
530
508
522
546
540
518
526
550
550
526
528
552
556
532
528
550
560
540
528
550
562
542
526
544
560
544
522
536
556
544
520
528
550
544
518
520
544
542
516
512
536
540
516
508
530
540
518
504
526
538
520
502
520
538
522
502
514
536
528
502
510
534
530
504
508
532
534
508
504
530
536
514
504
528
540
520
504
524
540
522
506
522
542
528
506
518
540
532
508
514
540
536
512
512
536
540
516
510
534
540
520
508
530
544
524
508
528
544
528
508
522
544
532
510
520
542
536
512
514
540
540
516
514
538
544
520
510
538
546
522
510
530
546
528
510
526
546
530
510
522
544
536
512
518
544
538
514
516
542
542
518
514
540
544
520
512
536
546
524
512
530
548
530
510
528
546
532
512
522
544
538
514
520
542
542
516
516
540
542
520
514
536
546
522
512
534
546
528
512
528
546
530
512
526
548
536
520
530
556
548
526
528
552
550
524
520
544
548
522
514
536
548
522
510
530
544
526
508
524
544
530
508
520
544
534
510
518
542
538
556
634
698
660
570
514
508
500
474
468
494
510
496
486
510
528
514
500
518
540
530
512
524
548
542
520
528
552
550
526
528
552
556
532
528
554
562
540
528
548
562
540
524
542
558
542
522
534
554
542
518
526
548
540
516
518
544
540
514
512
538
540
516
508
530
540
516
504
524
538
520
502
518
536
522
502
514
536
526
504
510
534
530
504
508
532
532
508
506
530
536
512
504
526
538
518
506
524
542
522
506
520
542
528
508
518
542
532
510
516
538
536
512
514
538
538
516
510
534
540
520
510
532
544
524
510
526
544
528
510
524
544
532
510
520
544
536
512
516
542
540
516
514
540
542
518
512
536
544
522
510
530
546
526
510
528
544
530
512
524
546
534
512
520
544
540
514
518
540
542
516
512
540
546
520
512
534
548
524
510
532
546
528
510
528
546
532
512
522
544
536
512
520
544
538
514
516
540
544
518
512
536
544
522
512
534
546
526
510
530
546
530
512
528
552
540
522
532
556
548
524
528
550
548
522
520
544
548
520
514
536
544
520
510
530
542
524
508
524
544
528
510
522
546
532
510
520
544
584
638
674
654
588
514
482
496
498
476
472
500
516
498
490
514
532
518
504
522
544
534
514
526
552
540
520
530
554
552
528
530
556
556
532
530
554
562
538
528
550
560
540
524
542
558
540
520
534
554
540
518
526
548
538
514
518
542
538
512
512
536
538
514
506
530
538
514
504
524
538
518
502
520
538
522
502
514
536
524
502
512
534
530
504
508
534
532
508
506
530
538
512
506
530
538
516
504
526
540
522
504
522
542
526
506
520
542
530
508
516
540
536
512
514
538
538
514
512
536
540
518
508
532
544
522
508
528
546
528
510
524
544
530
510
522
544
536
512
518
542
540
514
516
540
542
518
512
536
544
522
512
532
546
526
510
530
546
530
510
524
546
534
512
522
544
538
514
518
542
542
516
516
540
544
520
512
536
546
524
510
532
546
528
510
528
546
532
512
524
544
534
512
520
544
538
514
518
542
542
516
514
538
544
520
512
534
546
524
510
530
546
528
514
532
554
542
522
534
558
546
524
530
550
546
518
520
544
546
518
512
536
544
518
508
530
542
522
508
526
544
526
508
524
544
530
510
522
596
666
668
626
586
536
482
472
494
498
478
478
508
520
502
496
520
536
520
506
526
546
530
514
532
552
542
522
530
556
552
528
532
556
556
532
532
558
560
536
528
552
560
538
524
542
556
538
518
536
552
536
516
526
548
536
514
518
542
536
512
512
538
536
512
508
532
536
514
504
526
538
516
500
520
538
520
502
518
536
524
502
514
536
526
504
512
534
532
506
508
532
536
510
508
530
538
516
506
528
540
520
506
524
542
526
506
520
542
530
508
518
540
536
510
516
538
540
514
512
536
542
518
512
532
544
522
510
530
544
524
508
528
544
530
510
522
544
534
510
520
542
538
514
516
540
542
516
514
538
544
520
510
534
546
524
510
530
546
528
512
526
546
532
510
522
544
534
512
520
544
538
514
516
542
544
518
514
538
544
522
512
534
546
524
512
530
548
530
510
524
546
534
512
522
544
536
512
518
542
540
516
516
540
544
518
514
536
546
522
512
534
546
530
516
538
556
542
524
536
556
544
520
528
550
542
516
520
542
542
516
514
538
542
516
510
532
542
520
508
530
542
524
508
524
544
530
514
582
678
688
614
558
534
506
470
470
498
502
484
486
516
526
504
500
524
540
522
508
532
548
534
516
530
554
542
522
534
556
550
526
534
558
556
532
532
556
558
534
528
552
558
534
524
544
556
534
518
536
552
534
514
526
548
534
510
520
542
536
510
514
536
534
510
508
532
536
512
504
526
538
514
502
522
538
518
502
520
536
522
502
516
536
526
504
514
536
530
506
510
534
534
510
506
532
540
514
508
530
540
520
506
526
542
524
506
522
542
528
508
518
542
532
510
516
542
536
512
514
538
538
516
510
534
542
520
510
532
544
524
508
528
546
528
510
524
544
534
510
520
544
536
512
518
544
538
514
514
538
544
518
512
536
544
522
510
532
546
528
510
528
546
530
510
522
544
534
512
520
544
536
514
516
542
540
516
514
540
544
520
512
536
544
524
510
532
546
526
510
526
546
532
512
522
546
534
512
520
544
540
514
518
542
542
518
514
538
546
520
512
534
550
532
518
540
558
542
522
538
556
542
518
528
550
540
516
520
542
540
514
514
538
540
516
510
534
542
518
508
530
544
524
508
526
544
536
576
662
698
632
546
508
508
492
468
