472
484
497
504
500
489
477
472
477
487
499
506
505
495
482
473
473
481
493
503
504
496
483
473
469
474
486
498
503
497
484
472
465
469
480
492
499
497
487
474
465
465
474
488
498
499
492
479
469
466
472
484
496
502
497
484
472
466
469
480
493
501
500
490
477
468
469
486
520
563
603
629
636
622
598
574
554
535
514
490
464
442
430
430
439
452
461
461
453
442
436
439
451
466
479
483
477
467
458
457
465
478
491
497
494
484
473
468
473
484
497
506
506
497
485
477
478
488
501
513
515
507
494
484
482
489
501
513
519
516
505
493
486
489
499
512
521
521
512
499
490
490
499
511
520
522
515
502
491
488
493
504
516
521
516
504
491
484
487
497
509
516
514
504
491
483
482
489
501
511
512
505
491
479
475
482
493
504
508
503
491
478
471
473
484
498
506
503
492
479
471
470
478
490
500
503
495
482
470
466
472
484
496
500
496
484
470
463
467
478
491
498
496
486
473
465
465
472
484
494
497
491
478
467
464
471
484
496
501
498
489
478
472
475
486
499
507
505
496
483
474
473
481
494
503
504
497
484
473
469
474
486
498
503
497
485
473
466
469
478
492
500
499
488
476
467
466
474
486
496
498
492
480
469
465
471
483
495
501
497
485
473
467
470
481
492
500
499
491
478
469
468
476
495
524
558
590
613
623
621
608
591
570
544
514
483
455
438
435
441
451
459
458
450
440
433
436
447
462
474
479
474
464
455
453
461
474
488
496
494
484
473
467
471
482
496
506
506
497
485
476
477
486
500
512
514
507
495
484
480
486
499
512
518
514
503
491
485
488
499
512
520
519
511
499
490
489
498
511
520
522
515
503
492
488
494
505
517
522
517
505
492
485
488
498
509
516
515
505
492
482
481
488
501
510
511
504
492
480
475
480
492
504
508
503
492
480
473
475
485
497
504
503
493
480
470
469
478
490
499
500
494
482
471
466
472
484
495
500
495
483
471
464
467
478
491
499
497
487
474
465
465
473
485
496
498
491
478
467
463
469
481
493
500
498
488
476
471
475
486
499
507
506
496
484
474
473
481
494
503
504
497
485
474
470
475
486
497
502
497
485
473
466
469
479
491
499
498
489
475
466
465
474
486
497
499
492
479
468
465
471
483
495
501
496
484
472
466
469
480
492
500
500
491
478
469
469
476
488
502
522
546
571
596
617
627
624
608
580
544
506
472
450
441
445
453
459
458
450
439
431
432
443
458
471
476
472
462
453
451
459
474
487
493
491
481
470
465
470
482
495
503
504
496
484
475
476
485
498
509
512
505
494
484
481
487
498
511
518
515
504
491
485
488
499
512
520
519
510
497
489
489
498
511
522
523
515
502
492
489
494
505
515
520
516
505
493
485
487
497
509
518
517
507
493
483
482
489
501
511
514
507
493
481
477
482
494
505
510
505
493
480
473
474
484
497
504
503
493
480
470
469
476
489
499
502
495
482
471
466
471
482
494
500
496
484
472
465
468
478
489
498
497
488
474
465
465
473
485
495
497
491
478
467
462
467
479
492
499
496
487
475
469
472
483
497
506
505
497
485
476
475
482
494
504
506
500
487
475
470
475
486
498
504
499
487
474
467
468
478
491
500
499
489
476
467
466
473
486
496
499
493
480
469
465
470
482
493
499
496
486
474
467
469
478
491
499
499
491
479
469
467
475
488
498
503
510
527
554
588
619
638
638
617
581
538
499
470
454
451
456
461
459
449
437
429
430
440
455
469
474
470
460
451
449
456
470
483
491
490
481
471
464
467
478
492
502
502
495
484
475
475
484
497
508
511
506
494
484
481
486
498
510
517
515
505
492
485
487
497
510
519
519
510
498
489
488
497
510
520
523
516
504
492
488
493
504
515
520
516
505
493
486
487
497
509
518
517
508
494
484
483
490
501
511
514
507
494
482
478
481
491
503
510
507
495
482
474
475
484
497
505
504
495
482
472
470
477
489
499
501
495
483
471
466
471
482
494
500
496
486
473
465
466
476
489
498
498
489
476
467
465
472
484
493
497
491
479
468
463
467
478
491
498
496
486
475
468
471
482
495
505
506
498
485
475
474
481
493
503
506
499
486
475
470
475
486
497
503
499
488
476
468
469
478
491
499
498
490
478
468
466
473
485
496
499
493
481
470
466
471
482
493
499
496
486
474
466
468
478
491
500
500
491
478
468
467
475
488
499
502
498
498
512
543
586
627
650
647
620
579
533
497
475
466
466
466
461
451
437
427
427
436
451
464
470
467
458
449
447
453
467
481
489
489
480
469
462
465
476
491
500
502
495
485
475
473
482
496
508
511
505
495
485
480
484
496
509
516
514
504
492
485
486
496
509
518
519
510
498
488
486
494
507
518
523
518
506
494
488
492
503
515
522
518
507
495
487
489
497
509
517
517
509
496
486
482
489
501
512
515
508
496
484
479
482
492
503
510
507
496
483
475
476
484
496
504
504
495
482
473
471
477
489
500
503
497
485
473
467
470
481
494
501
499
488
474
465
466
475
488
497
497
489
476
466
464
470
483
494
498
492
480
468
464
468
479
491
498
496
486
474
467
469
480
494
504
506
498
486
476
475
481
492
503
506
501
489
477
471
475
485
497
503
500
490
477
468
469
478
490
499
501
492
479
468
465
472
484
496
500
494
482
470
464
468
480
493
499
496
486
474
466
467
476
489
499
500
492
479
469
466
473
486
498
502
496
486
484
502
541
591
635
656
647
614
571
531
501
486
480
476
468
454
439
428
426
435
448
461
467
466
458
448
443
450
463
478
487
487
479
468
461
463
474
488
499
501
494
483
474
473
480
493
505
509
505
495
484
479
482
494
507
515
514
504
492
484
485
494
508
518
520
512
500
490
486
493
506
519
524
519
507
495
489
492
502
514
521
518
509
496
488
488
496
507
516
518
511
499
487
482
488
500
511
515
509
498
486
479
480
490
503
510
509
498
484
475
475
483
496
505
506
499
486
475
470
475
488
500
503
497
486
474
468
471
481
493
500
499
489
476
467
466
475
487
497
499
491
479
468
464
470
483
494
499
494
482
469
462
465
476
489
497
496
487
475
466
467
478
492
502
505
499
487
477
473
479
491
503
508
504
492
478
471
474
485
498
504
502
492
480
470
469
477
489
499
501
493
480
469
466
471
483
495
499
495
484
472
465
467
478
491
499
498
489
476
467
466
475
488
498
500
493
482
471
466
471
484
496
501
497
485
474
476
501
545
596
636
653
641
607
568
535
514
501
491
479
462
444
430
426
432
444
457
465
464
455
445
441
446
458
473
484
485
478
467
460
461
470
484
495
500
494
483
472
470
478
491
503
509
506
496
484
478
481
492
505
514
514
505
492
484
484
492
505
516
518
512
501
490
486
492
504
517
523
518
507
495
488
491
501
513
521
520
511
498
489
488
496
507
517
520
513
500
488
484
488
498
510
516
512
501
488
479
481
491
503
510
509
499
486
477
476
484
495
505
506
500
487
476
470
476
487
498
502
499
488
476
469
471
480
493
501
501
491
478
469
468
475
487
497
500
493
480
468
463
468
480
492
498
494
483
471
463
466
477
489
497
496
487
474
465
465
474
488
500
505
499
488
477
473
478
490
502
508
504
492
480
473
474
483
495
503
502
493
480
470
469
476
487
497
501
495
483
471
465
470
481
493
499
496
486
473
465
467
476
489
499
499
490
477
467
465
473
486
497
501
495
483
472
467
471
482
495
501
498
488
475
468
476
505
549
597
632
644
631
603
572
547
528
513
496
476
454
436
427
430
441
454
462
462
454
443
438
443
455
470
481
483
478
468
459
458
466
480
494
499
494
482
472
469
475
487
500
507
505
496
485
477
479
489
503
513
514
507
494
484
482
490
503
514
519
514
503
490
485
490
502
515
522
519
510
498
489
489
499
513
522
522
513
500
490
488
494
506
516
520
514
502
490
484
487
498
510
516
513
502
489
480
481
489
501
510
511
503
490
478
475
482
493
503
506
500
489
477
472
476
486
497
504
501
491
478
469
470
479
491
499
501
493
480
469
465
472
484
495
499
493
482
470
464
468
479
492
499
496
486
473
465
465
473
485
495
496
489
477
467
465
473
486
498
503
499
488
478
473
477
487
499
506
505
496
483
473
473
481
494
503
504
495
482
472
469
475
487
497
501
497
485
472
465
469
480
493
499
497
487
474
465
465
474
487
497
499
492
479
469
466
472
484
495
500
495
484
472
466
470
482
494
501
499
489
477
468
468
482
511
552
592
621
631
624
605
583
563
544
522
496
468
445
432
430
439
451
460
461
453
442
435
438
449
465
478
481
475
465
456
456
464
477
490
497
493
483
472
467
472
484
497
506
505
497
486
478
478
487
501
513
515
508
496
486
483
488
501
513
519
515
504
491
485
488
499
513
521
519
510
499
490
490
498
511
520
522
515
502
491
487
493
504
516
521
516
504
492
485
487
497
509
516
515
505
492
482
481
488
501
510
511
503
491
481
476
480
492
504
509
503
492
480
472
474
485
497
505
502
492
480
470
470
477
490
499
501
494
482
471
466
471
482
493
499
495
484
471
464
467
477
490
498
497
487
474
465
464
472
485
496
498
491
478
467
464
469
482
495
501
499
489
478
471
474
485
498
506
506
497
484
475
474
481
493
503
505
498
486
474
469
474
486
497
503
500
488
474
467
469
479
491
499
498
489
476
467
465
474
486
496
499
493
481
470
465
470
482
495
501
497
486
474
467
469
479
492
500
500
491
478
469
469
476
492
517
549
580
606
621
622
613
597
577
552
521
488
458
439
433
439
450
458
458
451
441
433
434
445
460
474
480
477
467
457
454
461
474
487
495
493
484
473
466
469
480
495
505
506
499
486
477
476
484
497
509
513
508
496
485
481
486
499
511
517
514
504
492
484
487
497
510
519
519
511
499
490
488
495
508
519
523
517
505
493
487
492
503
515
521
517
506
494
486
487
495
507
515
516
507
494
483
481
488
500
510
513
506
494
482
477
480
490
502
508
505
494
482
474
474
482
495
503
504
496
483
472
469
476
488
499
502
496
484
472
467
470
481
493
500
498
487
474
466
466
475
487
497
497
489
476
465
464
471
483
493
498
493
480
468
463
467
478
491
499
497
489
478
471
472
482
495
505
506
499
487
476
473
480
492
502
506
500
488
476
470
473
483
496
503
499
489
477
468
468
476
489
498
499
491
479
468
465
472
484
495
499
495
483
471
465
469
480
493
500
498
488
475
466
467
476
489
499
501
493
480
470
468
474
485
499
516
539
565
592
614
626
626
613
588
554
516
481
455
443
443
451
458
459
452
441
432
431
440
454
469
476
474
464
455
451
456
468
483
493
493
485
473
466
468
478
492
502
504
498
487
478
475
482
494
506
512
509
498
486
481
484
496
509
517
516
507
494
485
485
494
507
517
520
513
501
491
488
495
507
518
523
519
508
495
488
491
501
513
520
519
510
496
487
486
494
507
517
518
511
497
485
480
486
497
509
514
509
497
485
478
479
490
502
509
507
497
484
474
472
479
492
503
505
497
485
474
469
474
486
498
503
498
487
474
467
469
479
492
500
498
488
476
467
466
474
486
495
498
491
479
467
464
469
480
491
497
493
482
470
463
465
476
489
498
498
490
479
471
472
481
493
503
506
500
488
477
473
478
490
501
506
502
491
478
470
472
481
493
501
500
491
478
469
467
475
487
497
500
493
481
469
465
470
482
494
500
496
485
472
465
468
478
491
499
498
490
478
469
468
475
488
499
502
496
483
471
466
471
482
494
503
511
525
549
580
612
635
639
623
592
552
510
476
456
451
455
460
461
454
442
431
428
435
449
464
473
473
465
455
449
453
465
480
491
492
484
472
465
465
474
487
500
505
500
489
478
473
479
491
504
512
510
499
487
480
483
494
507
516
516
507
495
486
485
492
505
516
520
515
503
492
487
492
504
517
523
520
510
497
488
489
499
511
520
521
512
499
489
486
492
503
514
518
512
500
488
483
486
496
507
513
510
500
487
479
478
486
499
508
508
500
487
476
474
481
492
502
506
501
488
476
469
473
484
497
503
499
489
477
468
468
477
489
499
500
492
479
468
465
472
484
495
499
494
482
469
463
468
479
491
497
495
485
473
465
466
475
488
497
498
491
480
471
469
476
490
503
508
502
490
479
473
478
488
499
505
503
493
480
471
471
480
492
501
502
494
482
471
467
473
485
496
501
495
483
471
465
468
479
491
499
497
487
475
467
467
476
488
497
500
494
481
470
466
471
484
497
502
496
485
473
466
470
482
495
502
500
499
510
536
575
616
644
649
628
590
546
506
477
463
462
464
463
455
444
432
426
431
445
460
469
470
464
454
448
449
460
475
487
491
485
474
465
463
470
484
497
503
499
489
478
473
477
488
501
509
509
501
489
480
480
489
502
513
516
510
498
487
484
492
504
516
521
517
505
492
486
491
502
515
523
521
512
499
490
488
496
509
519
521
514
502
490
486
491
502
513
518
514
503
490
482
484
494
507
514
513
503
490
480
478
485
498
508
509
502
490
478
473
479
491
502
506
503
491
478
471
472
482
495
503
502
492
478
468
467
475
488
498
500
493
480
469
465
470
482
493
499
496
486
473
464
466
476
489
498
497
487
474
465
464
471
484
495
499
493
481
470
467
474
487
500
507
503
493
481
474
475
485
498
506
505
496
483
472
471
479
492
501
503
497
484
472
467
472
484
495
501
497
486
472
465
467
477
489
497
497
489
476
467
465
474
486
496
499
493
482
471
466
471
482
495
501
497
487
474
467
469
479
492
500
499
491
486
497
530
577
623
652
652
626
583
540
505
485
476
473
470
461
447
433
425
428
439
454
466
469
463
452
445
446
456
470
483
489
486
475
465
461
467
481
494
501
500
491
479
472
475
486
499
509
510
502
490
481
480
488
501
511
516
511
500
489
484
488
500
514
520
517
506
494
488
491
500
511
520
522
514
501
491
488
495
507
518
522
516
504
492
486
489
501
513
519
516
505
492
483
484
493
506
515
515
506
492
482
479
485
497
507
510
505
492
480
474
479
489
501
507
504
494
480
471
471
480
492
501
502
493
480
471
468
474
486
497
501
495
483
471
465
469
481
492
499
496
486
473
465
466
475
487
497
497
489
476
465
463
471
483
493
497
493
482
470
466
471
484
498
506
503
493
481
474
475
484
497
505
506
498
485
474
471
478
491
501
504
498
486
474
468
471
482
495
501
498
487
474
466
467
476
488
498
499
491
478
467
465
472
485
496
500
494
482
470
465
470
481
492
499
498
489
476
467
467
477
490
499
501
492
480
476
492
531
582
629
654
649
619
578
540
513
498
489
482
469
452
436
426
427
437
451
462
466
461
451
443
443
451
466
480
486
484
474
465
461
466
477
491
499
498
490
479
471
472
483
497
507
509
503
491
481
478
484
497
510
515
511
499
488
484
488
499
511
519
517
508
495
486
487
497
510
520
522
516
505
493
488
494
507
518
522
517
505
492
486
490
500
512
519
517
507
494
485
485
493
505
514
515
507
494
482
479
484
496
506
510
505
493
481
475
478
488
499
506
504
494
482
473
472
481
493
502
504
495
482
470
467
474
486
497
501
496
484
472
465
469
480
492
499
497
487
474
465
465
474
486
496
498
491
478
467
463
470
482
493
498
493
482
470
465
469
480
494
503
503
495
483
474
473
482
495
505
507
499
486
475
472
478
489
500
504
499
486
474
469
472
481
493
500
498
488
476
467
466
475
488
498
500
492
479
469
465
471
483
495
500
496
484
471
466
469
480
491
499
498
489
476
468
468
477
489
499
502
494
481
470
471
494
536
586
627
646
639
612
577
548
526
512
498
482
462
441
429
427
435
449
460
463
458
449
441
440
448
462
477
484
481
472
462
457
461
473
488
497
498
490
478
470
471
481
494
505
508
503
491
480
477
483
497
509
515
510
499
488
483
486
497
510
518
517
508
496
487
487
495
508
518
522
515
503
492
488
494
505
517
522
518
507
494
487
490
499
512
520
519
509
496
486
484
492
505
515
516
508
495
484
479
484
495
506
511
508
496
482
475
476
486
499
507
506
496
483
473
472
480
492
501
502
496
484
472
467
473
485
497
501
497
485
472
465
467
477
490
497
497
488
476
467
465
473
485
495
497
491
479
467
463
468
480
493
499
494
483
470
463
467
478
492
502
503
494
482
473
473
481
494
504
507
500
488
476
472
477
488
499
504
501
489
476
469
472
482
493
500
499
491
478
469
467
476
488
498
500
493
480
469
464
469
481
493
499
496
486
473
466
468
479
491
499
499
491
478
468
467
476
488
498
501
495
483
471
466
475
503
544
587
621
636
630
609
585
563
543
523
501
476
451
434
428
434
446
457
460
456
448
440
438
445
459
473
480
479
471
461
455
459
471
485
495
497
489
478
469
469
478
492
504
509
502
490
480
477
482
494
506
513
512
501
489
482
485
495
508
518
518
509
497
487
486
494
507
518
522
517
505
493
488
494
506
518
523
518
507
495
487
489
499
512
520
519
509
496
486
485
492
504
514
517
510
498
486
480
484
496
508
513
510
498
484
477
478
488
499
507
506
497
483
474
471
477
490
501
504
498
485
473
467
472
484
495
501
498
488
475
467
469
478
490
498
498
489
476
467
465
472
484
494
497
491
479
467
463
468
480
492
498
494
484
471
463
466
477
490
499
500
493
482
473
473
481
494
505
508
502
489
477
473
478
489
500
505
501
491
478
469
470
480
493
501
501
492
479
469
467
474
486
495
499
493
481
470
465
470
481
493
499
496
486
473
466
468
478
491
500
499
490
478
468
467
475
487
498
502
496
484
472
467
470
484
510
543
577
604
620
621
612
598
579
555
527
496
466
443
433
435
445
456
459
455
446
436
433
440
454
470
479
479
470
459
453
457
469
483
494
496
490
478
468
467
476
490
502
506
502
491
480
476
481
492
505
512
511
501
490
483
484
494
509
518
518
508
496
487
486
493
506
517
520
515
505
494
489
494
505
517
523
519
508
496
488
489
497
510
520
520
511
497
487
485
493
505
515
518
511
498
486
481
485
496
507
512
509
498
485
478
479
488
499
507
506
498
485
475
472
479
491
501
504
498
486
474
469
474
484
495
501
498
488
475
467
469
478
491
498
498
489
477
467
465
473
485
495
498
492
480
468
463
467
479
492
498
495
484
471
464
465
474
488
498
500
492
481
473
472
480
492
504
507
501
490
478
473
476
486
499
506
503
492
479
470
470
479
492
501
501
493
480
469
466
473
486
497
500
494
482
470
464
469
481
493
499
495
486
474
466
467
476
489
499
499
491
478
469
467
474
487
498
502
496
484
472
468
472
483
496
514
536
562
588
610
624
625
614
593
561
523
486
459
444
442
448
456
459
454
443
433
430
438
452
467
476
475
468
457
451
453
465
480
491
494
487
475
467
466
474
488
500
505
501
490
479
475
480
492
506
513
510
500
488
481
483
493
507
516
517
508
496
486
484
492
505
516
520
515
503
492
488
493
505
517
523
520
509
496
488
489
498
511
521
522
512
498
488
486
493
505
515
518
511
498
486
481
484
495
507
512
509
499
486
478
479
488
500
508
507
498
486
476
473
479
491
502
505
499
487
475
469
473
484
496
503
501
491
477
467
468
478
490
499
500
491
478
467
465
472
483
494
498
493
481
469
464
467
478
490
496
494
485
473
465
465
474
488
498
499
491
480
472
471
478
490
502
506
502
491
479
473
476
487
499
506
503
492
479
470
471
480
493
501
501
493
480
469
467
474
486
496
500
494
482
470
465
470
481
493
500
497
487
474
465
467
476
489
498
500
491
479
469
466
473
485
497
502
497
484
472
467
471
483
495
503
510
523
545
574
607
632
641
628
597
556
514
480
458
451
454
460
461
455
443
432
429
436
449
463
473
474
466
455
449
452
464
479
490
492
486
474
465
465
474
487
500
506
502
489
478
474
479
491
503
510
509
500
488
481
482
492
505
515
516
509
497
487
484
492
505
517
521
515
503
492
488
493
505
517
524
520
510
497
489
489
498
511
521
521
512
499
489
486
492
504
515
518
511
499
487
482
486
496
508
513
511
501
488
479
480
488
500
508
509
500
487
476
474
480
492
502
506
501
489
475
469
473
483
495
502
499
489
477
468
468
477
489
499
500
492
478
468
465
472
484
495
499
493
481
469
463
468
480
492
498
495
485
473
465
465
474
487
496
497
490
479
470
469
476
489
502
507
502
490
479
474
477
488
501
508
504
492
479
471
472
481
494
503
503
493
480
470
467
474
487
497
501
495
482
470
464
468
480
493
499
497
487
474
465
467
476
489
498
499
491
479
469
467
474
486
497
501
495
484
472
467
471
482
495
501
499
495
504
530
570
614
645
651
632
593
547
508
481
468
465
466
464
455
441
430
426
433
446
460
469
470
462
451
445
449
461
477
487
490
484
473
464
463
472
486
498
503
498
487
477
473
477
489
502
510
509
499
487
480
481
490
504
515
516
508
495
486
485
491
504
516
520
515
503
492
487
492
504
516
523
520
509
498
491
492
500
511
520
521
514
501
490
487
493
505
515
518
512
500
488
483
486
496
508
515
513
501
487
479
480
488
500
509
509
500
487
476
473
480
491
502
505
500
487
475
469
474
485
496
502
500
490
476
467
468
478
491
500
499
491
479
469
466
472
484
495
499
493
481
469
464
469
480
491
497
494
484
472
465
465
474
487
497
497
489
477
468
467
475
489
501
506
501
490
479
474
477
488
500
507
504
494
480
472
472
481
494
503
503
494
481
471
468
474
486
497
501
495
482
470
465
470
481
493
499
496
486
474
465
467
476
489
499
499
491
478
468
466
473
486
497
501
495
483
472
467
471
483
495
501
498
487
481
493
527
575
623
652
653
626
585
543
510
491
483
479
472
460
444
431
426
430
443
458
467
466
458
449
444
447
459
474
484
486
480
470
462
462
470
484
496
501
497
486
476
472
477
489
502
509
507
497
486
479
481
491
504
513
514
507
496
486
484
491
504
515
519
514
503
492
486
491
502
515
522
520
510
497
489
490
500
512
521
520
511
499
489
487
494
506
516
520
513
501
488
482
486
496
508
514
511
500
488
480
481
489
501
509
510
501
487
476
474
480
492
503
506
501
488
476
471
475
485
497
503
500
490
477
468
469
478
491
501
501
491
478
468
465
473
485
495
499
493
480
468
463
467
479
492
499
495
484
472
464
465
475
488
497
497
489
476
467
466
475
489
501
505
499
488
478
473
477
489
501
507
504
493
480
472
473
482
495
503
502
493
480
