472
479
491
503
507
503
491
479
473
477
487
499
506
504
494
480
472
473
483
496
505
506
499
486
475
472
479
491
503
507
502
490
478
473
476
486
499
506
505
495
482
473
473
482
495
505
506
499
486
476
472
477
490
502
508
504
492
479
472
475
486
499
507
506
497
483
474
473
480
493
504
507
500
488
477
473
478
490
502
508
504
493
480
473
476
486
498
506
506
496
484
474
473
481
493
503
507
501
489
477
473
478
490
501
507
504
493
480
473
475
486
500
510
512
505
493
484
483
492
505
516
519
513
501
488
482
486
497
509
514
511
500
487
478
479
487
500
509
510
501
488
476
473
480
492
502
506
501
489
477
471
473
483
496
505
502
492
479
470
470
480
493
503
504
496
483
473
470
477
489
500
504
500
489
477
471
474
483
499
521
548
577
603
620
627
622
608
585
555
521
486
457
442
439
447
456
461
457
448
438
433
438
451
466
477
478
470
460
453
453
463
479
491
495
489
478
469
466
473
487
500
507
504
494
482
475
478
490
503
512
512
504
491
482
481
490
503
515
518
513
501
490
486
490
502
514
521
518
509
496
488
490
501
514
523
523
514
501
491
488
495
508
518
522
515
503
490
484
488
500
512
519
516
505
492
483
482
490
503
512
513
505
492
480
477
484
496
506
509
504
492
480
473
476
486
498
505
502
492
480
470
470
478
491
500
501
494
482
471
467
472
484
495
500
495
483
471
464
467
477
491
499
497
486
474
465
464
472
485
496
498
490
478
467
463
468
480
492
497
493
481
469
462
466
477
490
497
497
488
475
465
464
472
485
495
499
493
481
469
465
470
481
493
499
497
487
473
465
467
478
491
501
501
492
479
468
467
474
488
499
502
496
484
472
467
472
484
496
502
500
490
477
469
470
479
493
502
503
495
482
471
469
476
488
499
503
498
487
475
469
473
484
497
504
501
492
479
471
471
480
493
503
504
497
484
474
471
478
490
501
505
501
489
477
471
474
484
497
505
504
494
481
472
471
480
494
504
507
499
486
474
471
478
490
501
506
502
491
479
472
475
486
499
507
506
496
482
473
472
480
494
505
507
500
487
476
471
477
489
501
507
503
492
479
472
475
485
498
506
505
497
484
474
473
481
493
504
507
501
488
476
472
477
489
501
507
503
492
480
473
474
483
497
506
507
497
484
474
473
480
492
503
506
501
490
478
473
476
488
501
507
504
494
481
473
474
484
496
505
506
498
485
475
472
479
491
503
507
502
490
478
473
477
487
499
506
504
494
481
473
474
483
495
505
507
500
487
476
473
479
491
503
507
502
490
478
473
477
487
499
506
505
496
484
475
474
482
496
508
511
505
494
484
482
488
500
512
518
514
502
489
482
485
495
507
514
513
503
490
480
479
487
499
509
510
503
490
478
473
478
490
501
506
503
492
479
471
472
482
495
503
504
496
483
472
470
477
490
501
505
499
486
474
469
474
486
499
505
502
491
478
471
473
482
494
505
518
536
561
589
616
633
636
621
593
555
515
480
456
445
449
458
463
459
448
437
430
433
445
461
474
478
472
461
453
453
461
474
487
493
489
479
469
465
470
482
495
504
503
495
482
474
475
485
499
510
513
506
494
483
480
486
499
512
518
514
503
491
485
488
499
513
522
520
510
497
489
489
498
511
521
524
517
504
492
488
493
505
517
522
518
505
492
486
489
500
513
520
517
507
494
484
483
490
503
513
514
507
494
482
477
482
493
505
510
507
495
481
473
474
484
497
506
505
495
482
472
469
476
488
499
502
496
484
472
467
470
481
494
501
498
487
474
466
467
475
487
497
498
490
477
467
464
471
483
494
497
491
479
467
462
467
479
491
498
495
485
472
464
465
473
486
496
497
490
477
467
465
471
483
494
500
496
484
471
465
469
480
492
500
498
489
477
468
468
476
488
498
501
494
481
471
467
473
485
497
502
497
486
474
468
471
481
494
503
502
492
479
470
469
478
490
500
503
497
484
473
469
474
486
498
504
500
488
476
470
473
482
495
503
502
494
482
472
470
479
492
502
504
497
486
475
470
475
487
499
505
502
491
478
471
472
482
495
503
504
496
484
474
472
479
491
503
506
500
488
476
471
476
487
500
507
504
492
479
471
472
483
496
506
506
497
484
474
471
477
491
503
507
501
489
477
471
474
485
498
505
503
494
481
472
472
481
495
505
506
498
486
476
471
477
489
501
507
503
491
478
472
475
486
499
507
506
496
482
473
473
481
494
504
506
499
487
477
473
478
490
501
506
503
492
480
473
475
486
500
508
506
497
484
475
474
482
495
505
507
500
487
476
473
478
490
501
507
504
493
480
473
474
484
497
506
505
497
484
474
473
481
494
504
507
501
490
478
473
478
490
502
507
504
493
481
474
475
484
497
506
506
498
485
475
473
480
493
505
509
505
495
485
481
486
498
511
518
516
505
492
484
485
494
506
515
516
507
494
482
479
484
496
507
511
506
493
481
474
477
487
499
506
504
494
481
472
471
480
493
503
504
496
483
473
470
476
488
500
505
501
489
477
470
473
484
497
506
503
493
481
472
471
480
492
501
506
509
521
546
581
617
643
647
629
594
551
509
477
461
458
462
465
462
451
438
429
430
440
456
469
474
470
460
451
449
457
471
484
491
489
480
469
463
467
478
492
502
503
495
484
475
475
483
496
508
512
507
495
484
479
484
497
511
518
515
505
492
485
486
496
509
520
521
512
500
489
487
495
509
520
524
518
506
494
488
492
504
516
522
519
508
496
487
487
496
509
518
518
509
496
486
483
489
500
511
514
509
497
484
477
480
490
503
510
507
497
484
475
474
483
495
504
506
498
484
473
469
475
487
498
503
499
487
475
468
470
479
492
500
498
488
476
467
467
475
487
496
498
491
478
467
463
469
481
493
497
493
483
471
463
465
476
489
497
496
487
474
465
464
472
485
495
497
491
478
467
463
469
481
493
499
495
485
473
465
467
477
490
499
499
491
478
468
466
474
486
497
501
495
484
472
467
472
484
495
502
499
488
475
468
469
478
492
502
503
493
480
470
468
475
488
500
504
498
486
474
469
473
484
496
504
502
492
479
470
471
480
493
503
504
495
482
472
470
477
489
501
505
499
488
476
471
474
484
497
504
503
493
480
471
472
481
494
504
505
497
485
475
471
476
488
501
507
502
490
478
471
475
486
498
506
504
495
482
473
472
480
493
503
506
499
487
476
472
478
490
501
506
502
490
478
471
474
485
498
506
504
495
483
474
473
480
492
503
506
500
488
477
471
476
489
502
507
503
492
480
473
474
483
496
505
505
497
484
474
473
480
492
504
507
500
489
478
473
477
487
500
507
504
493
480
473
474
484
496
506
506
497
484
474
473
480
493
504
507
502
490
478
473
477
488
500
507
504
494
481
473
473
483
496
505
506
498
485
475
473
480
492
503
508
503
490
478
473
476
486
499
506
505
495
483
474
474
483
495
505
506
499
486
476
473
478
490
502
507
505
495
484
479
483
495
509
518
517
507
494
485
484
492
505
515
516
508
495
484
479
484
496
508
512
507
495
482
475
476
486
498
506
505
496
483
473
472
480
492
502
504
498
486
474
469
474
486
499
505
501
490
478
470
472
482
495
503
502
493
481
472
471
478
491
502
504
499
496
507
536
579
624
653
655
630
589
544
506
482
473
471
471
465
453
439
429
428
437
451
466
473
469
460
450
447
452
465
480
490
489
480
468
461
464
475
490
501
504
497
484
474
473
481
495
507
511
506
496
484
479
483
495
509
516
514
504
492
484
485
495
508
518
519
512
499
489
487
495
508
520
525
520
508
495
489
492
502
514
522
521
511
498
488
488
497
509
519
520
511
498
486
482
488
500
511
515
510
499
486
479
481
491
503
509
508
499
486
476
475
482
495
505
507
499
486
475
470
475
486
497
503
499
488
475
467
469
480
492
500
498
489
476
467
466
474
486
495
499
493
480
468
463
468
480
493
499
495
484
471
463
465
474
487
497
497
487
474
465
463
470
483
494
498
492
480
468
463
467
478
491
499
497
486
473
465
467
476
489
499
499
490
477
467
465
472
485
497
501
495
483
471
467
472
483
494
502
500
490
476
467
468
478
491
501
503
494
481
470
467
474
487
499
503
498
486
474
469
473
483
495
503
501
491
479
470
471
480
492
502
505
497
484
473
470
477
489
501
505
500
489
476
469
473
484
497
504
502
492
480
472
471
480
493
503
505
498
485
474
471
477
489
501
507
503
491
479
472
474
485
498
506
504
495
482
472
471
480
494
504
506
499
487
475
471
476
489
502
507
503
492
480
473
474
484
497
506
505
497
484
474
473
481
493
503
506
500
488
477
473
478
489
500
507
504
493
480
473
474
484
497
506
507
498
485
474
472
479
492
504
508
502
489
477
472
477
488
500
508
505
494
481
472
474
484
496
505
506
497
484
474
473
479
491
503
507
502
490
478
472
475
487
500
507
505
495
482
473
473
484
497
505
506
499
486
475
472
479
492
504
508
502
490
478
473
477
487
499
506
505
495
482
473
473
482
495
505
506
498
487
476
473
479
493
505
509
504
494
483
478
483
495
509
517
515
506
494
486
485
493
506
516
517
509
496
484
481
486
498
508
512
507
495
483
476
477
487
500
508
506
496
482
473
472
481
493
503
505
497
484
473
469
475
487
499
503
499
489
477
470
473
482
495
503
503
494
481
472
472
479
491
501
505
498
486
481
497
535
587
633
659
654
624
581
540
511
496
489
483
472
457
441
430
428
436
450
463
468
464
455
446
444
450
464
478
487
486
477
466
461
463
474
489
499
501
493
482
473
471
479
492
505
510
505
494
483
478
482
494
508
515
514
504
492
484
485
495
508
518
520
512
499
489
486
494
507
519
524
519
507
494
488
492
503
515
522
520
510
497
488
488
497
510
519
520
511
497
486
483
489
501
512
516
511
499
487
480
482
492
504
511
509
499
486
476
476
485
498
507
508
499
486
474
471
476
488
499
504
499
487
475
468
471
480
493
501
500
490
476
467
466
475
487
497
500
493
480
467
463
469
481
493
499
494
483
470
463
465
476
489
497
496
487
474
464
462
471
484
495
498
490
478
468
464
468
480
493
499
496
485
471
464
466
476
489
499
499
489
476
467
466
474
486
497
501
495
484
472
466
470
482
495
502
499
488
475
468
469
478
491
500
501
493
480
471
469
476
488
499
503
498
485
473
468
473
484
497
503
500
490
478
470
472
481
494
502
502
494
482
472
469
476
488
501
506
500
488
476
469
473
484
498
505
502
492
479
471
471
481
494
504
505
497
485
475
471
478
490
501
506
501
489
477
471
474
484
497
504
503
494
482
473
472
481
495
504
505
497
485
475
472
477
490
502
507
502
491
478
471
474
485
498
506
504
494
482
473
473
482
495
505
506
498
486
475
472
478
490
502
507
502
490
478
471
474
485
498
506
504
495
483
474
473
481
494
504
506
499
487
477
473
478
490
502
507
503
492
480
473
475
485
498
507
507
497
484
474
473
480
493
505
508
501
488
476
473
478
490
502
508
505
493
480
473
475
485
498
506
506
497
484
474
472
479
492
503
507
501
489
477
472
477
488
500
507
504
494
481
473
474
484
497
507
508
499
486
475
473
481
494
505
508
502
490
480
477
482
494
507
515
514
504
492
484
485
494
507
516
517
508
496
485
481
487
499
509
512
507
495
483
477
480
490
502
509
506
495
482
473
473
482
494
503
504
497
484
472
469
476
489
501
505
499
486
474
468
472
483
496
504
502
494
481
471
471
480
493
503
505
497
484
473
475
500
543
593
634
653
643
613
577
548
528
514
500
483
462
443
430
428
436
449
461
465
460
450
442
441
449
463
477
485
482
473
463
457
461
474
489
498
498
490
478
470
470
479
494
505
508
502
491
480
477
482
495
508
514
511
501
490
483
485
495
509
518
518
509
497
488
487
495
508
518
522
517
505
494
489
494
506
518
524
520
509
496
488
489
499
511
519
520
511
497
487
484
492
504
514
516
509
497
486
481
484
495
507
512
509
497
484
475
476
486
498
506
506
498
485
474
471
478
490
501
505
499
486
473
468
471
482
494
501
499
488
475
467
468
477
489
498
499
491
478
467
464
470
483
494
499
493
481
469
463
468
479
491
497
495
484
472
463
463
472
485
495
497
490
478
467
463
469
481
493
498
494
483
471
465
468
479
491
499
497
488
476
467
467
476
488
498
500
492
480
469
466
473
485
496
502
497
486
474
467
470
481
495
503
501
491
478
470
469
477
491
502
503
495
483
473
469
474
486
499
504
499
488
476
469
471
482
495
504
502
492
480
470
469
478
492
502
505
497
486
475
470
475
487
500
506
501
490
478
471
473
483
496
504
504
495
482
472
471
478
491
502
506
500
487
474
470
476
488
499
505
502
491
478
471
473
483
496
505
505
496
483
473
472
480
492
503
506
501
488
476
471
476
488
500
506
503
493
480
473
474
483
495
505
506
497
484
474
473
480
493
503
506
501
489
477
472
475
486
500
507
504
493
480
473
474
484
496
506
507
499
486
475
472
478
490
502
506
501
490
478
473
476
487
500
507
504
494
482
474
473
481
494
505
507
499
487
477
473
478
490
502
507
503
491
479
472
475
486
499
507
506
496
483
474
474
483
495
505
506
499
486
475
472
477
489
502
508
503
491
479
473
476
486
499
507
506
496
483
474
473
481
494
505
507
500
487
477
474
481
494
508
515
512
502
490
483
486
497
509
517
516
507
494
484
483
490
502
512
513
506
493
481
477
482
494
504
509
505
493
480
473
474
484
497
505
504
495
482
471
470
478
491
501
505
499
486
473
469
475
487
499
505
501
491
478
471
472
482
495
504
504
495
482
472
469
481
510
551
592
623
636
629
610
587
567
547
526
501
474
449
434
431
439
452
461
463
457
446
438
438
448
463
476
483
480
470
459
455
461
474
489
497
496
486
475
468
471
482
496
506
507
499
488
478
477
484
497
509
514
510
499
487
482
486
498
511
518
517
507
494
487
487
496
509
520
522
514
501
491
489
496
508
519
523
518
507
494
488
491
502
515
522
518
508
495
487
486
494
507
517
518
509
495
484
480
486
498
509
513
508
496
484
477
479
489
501
507
506
497
484
473
472
480
493
503
505
497
483
473
469
475
487
498
503
497
485
473
466
468
479
492
500
499
489
476
466
466
474
486
496
498
490
478
467
463
468
480
492
498
494
484
471
463
465
476
489
497
497
487
474
465
465
473
485
495
497
491
478
467
463
469
481
493
499
496
486
473
465
467
477
490
500
500
490
477
468
467
475
487
498
501
495
483
471
467
472
484
497
503
499
488
476
468
469
479
492
502
503
495
482
471
469
476
488
500
504
498
486
474
469
473
484
497
503
500
490
478
471
472
482
494
504
505
496
483
472
470
477
489
501
505
499
488
476
470
474
485
499
506
503
493
480
471
472
482
494
504
504
496
483
473
471
479
492
502
506
501
489
477
471
474
486
499
506
504
494
481
473
473
482
495
504
505
497
484
474
471
477
489
501
507
502
489
477
472
476
486
499
506
505
495
482
473
473
482
494
504
507
499
486
474
471
478
490
502
507
502
490
478
472
475
486
499
506
505
497
484
473
472
481
494
505
507
499
487
475
471
478
491
503
507
503
492
480
473
475
485
498
506
506
497
484
474
473
480
493
505
507
501
488
477
473
478
490
502
507
503
492
479
472
475
486
499
507
506
497
484
474
473
481
494
505
508
501
488
476
473
478
490
502
508
504
493
480
473
475
485
498
506
506
498
485
475
473
482
497
509
513
508
497
486
483
489
500
512
519
515
504
491
482
483
492
505
514
514
504
490
479
477
484
496
507
510
504
491
479
473
477
488
500
506
503
494
481
471
471
481
494
503
504
496
483
472
469
476
489
500
504
499
487
475
470
474
485
497
504
502
492
480
471
471
479
495
519
547
577
602
620
626
620
606
585
558
526
491
462
443
438
443
453
460
460
451
440
433
436
447
463
476
479
473
463
454
453
461
476
489
495
492
482
471
466
471
482
497
507
506
496
484
476
477
486
500
512
514
506
494
484
482
488
500
512
518
514
503
491
485
488
499
513
521
519
510
498
490
491
499
511
521
523
517
504
492
488
493
505
517
522
518
505
492
486
488
498
511
518
516
505
492
482
481
489
501
511
514
507
494
482
477
482
493
504
510
506
495
481
473
474
484
497
505
504
495
482
471
470
478
490
500
502
496
484
472
467
471
482
495
502
498
485
472
465
467
476
489
498
498
489
476
465
463
471
484
495
498
491
478
467
462
467
478
491
497
494
483
471
463
465
475
488
497
497
488
475
465
463
471
485
496
499
493
482
470
465
470
482
494
500
497
487
475
466
468
478
491
499
500
492
480
469
467
474
486
498
502
496
484
472
467
471
483
496
503
500
490
477
468
469
478
492
502
503
495
482
472
469
476
488
499
503
499
487
475
469
473
484
496
504
502
491
479
471
472
480
492
502
505
497
484
472
469
476
489
501
505
499
488
476
470
474
485
499
506
503
493
480
472
473
482
494
503
505
498
485
474
471
477
489
501
506
502
490
478
471
474
485
498
506
504
495
482
473
472
480
493
503
506
500
487
475
472
479
491
502
506
503
491
479
472
474
485
498
506
505
495
483
474
473
481
494
504
506
499
486
475
472
478
490
501
506
503
491
479
472
474
484
497
506
506
497
483
474
473
480
493
504
507
500
488
477
472
477
489
501
507
505
494
481
473
475
485
498
506
506
497
484
474
473
480
493
503
506
501
490
478
473
476
488
501
508
505
493
480
473
475
485
498
507
507
498
484
474
473
480
493
505
508
501
488
477
473
477
488
500
508
505
493
481
474
475
485
499
510
511
504
492
482
481
490
503
515
518
512
500
488
482
486
497
509
515
512
501
488
479
479
487
500
509
510
501
488
477
474
481
493
503
507
502
490
477
471
475
485
497
504
502
492
479
470
471
480
493
503
504
496
483
473
469
476
488
500
505
499
488
476
471
475
486
498
506
515
530
555
585
615
636
641
626
595
554
513
479
458
451
454
460
462
457
445
434
430
435
449
464
474
475
467
457
451
452
463
477
490
494
488
477
467
465
472
485
497
503
501
491
480
475
478
490
503
511
511
502
490
482
483
491
504
514
517
511
499
488
485
491
503
515
521
517
506
494
488
490
502
516
524
523
513
500
490
489
498
510
520
522
515
502
490
485
490
502
514
520
515
504
491
483
484
494
507
514
513
503
489
479
478
485
497
507
510
504
491
479
473
478
490
502
506
502
492
479
471
472
481
493
502
501
492
479
469
467
474
486
498
502
495
482
470
465
469
481
493
499
496
485
472
464
465
474
487
497
498
489
475
464
463
472
484
494
498
492
480
467
461
466
478
491
497
495
485
471
463
465
476
489
499
499
491
478
467
465
472
485
496
500
495
484
472
466
470
481
493
501
498
488
476
468
469
478
490
500
501
493
480
470
467
474
486
498
503
497
486
474
468
472
483
495
503
501
491
479
470
470
479
492
502
503
495
482
472
469
476
488
499
504
500
489
476
470
473
484
497
504
502
492
480
471
471
479
492
503
506
498
485
474
471
478
490
501
506
502
491
478
471
473
485
497
505
504
494
482
472
471
480
493
503
504
497
485
475
471
477
489
501
506
501
490
478
472
475
485
498
506
505
496
483
473
473
481
494
504
506
499
486
476
472
477
489
501
506
503
491
478
471
474
485
498
506
504
495
482
473
472
481
495
506
508
500
488
477
473
478
490
501
506
503
492
480
473
474
484
497
505
505
497
484
474
473
480
493
504
507
500
488
477
472
477
490
502
508
504
492
480
473
474
484
497
506
505
497
484
474
473
480
493
504
507
500
488
477
473
478
490
502
508
504
493
480
473
475
485
498
506
506
497
484
474
473
480
493
505
508
502
490
479
473
477
488
501
508
507
497
486
479
482
493
507
517
518
509
496
486
484
492
504
513
516
510
499
487
480
483
493
505
511
508
496
484
476
476
485
498
507
507
498
485
474
471
478
490
501
505
500
488
475
469
473
484
497
505
503
493
480
471
471
480
493
503
504
496
483
472
469
476
489
501
504
500
497
509
539
581
624
652
654
629
588
542
504
479
469
469
470
465
455
441
430
428
435
449
464
472
471
461
450
446
452
465
479
489
489
481
470
463
465
475
489
500
503
496
484
474
472
480
493
505
510
507
497
486
479
482
493
507
516
516
507
494
484
484
493
507
518
521
514
502
490
487
493
506
518
524
520
509
496
489
491
502
514
522
521
511
498
488
487
496
509
519
520
512
499
487
483
488
499
511
516
512
500
486
478
481
491
503
510
509
499
486
476
475
482
495
505
507
500
488
475
469
474
486
497
503
500
488
474
467
469
479
491
500
499
490
476
466
465
473
486
496
499
493
480
468
463
468
480
493
499
495
484
471
463
465
474
487
496
496
487
474
465
463
471
484
494
497
491
480
468
463
468
480
493
499
496
486
473
465
467
476
489
499
499
490
477
467
465
472
486
497
501
495
484
472
467
471
482
495
501
498
488
476
467
468
478
491
501
502
494
481
471
469
476
488
499
503
497
485
473
468
473
484
497
504
501
491
479
471
472
481
493
503
504
495
482
472
469
477
490
501
505
499
488
476
471
475
485
498
505
502
491
479
472
473
482
494
503
504
497
485
474
471
478
491
502
506
501
489
477
471
475
485
498
507
505
494
481
472
472
481
495
505
506
498
485
474
471
477
491
503
507
501
490
478
471
474
486
499
506
504
494
481
473
473
482
495
504
506
498
486
475
472
479
491
502
506
503
491
479
472
475
485
498
506
505
495
482
473
473
481
494
504
506
499
486
476
472
477
490
502
507
503
492
480
473
474
484
497
506
505
496
484
474
473
481
494
504
506
500
488
477
472
477
489
501
507
503
492
479
472
475
485
498
506
506
496
484
474
473
481
494
504
507
501
489
477
473
478
490
502
508
504
493
480
473
476
486
499
507
506
497
484
475
474
481
493
505
508
501
490
480
477
484
497
510
517
514
505
492
485
486
494
507
516
516
506
493
482
479
486
499
510
512
505
493
480
475
480
492
504
509
505
493
480
471
472
482
495
504
504
495
482
472
469
476
489
501
505
499
486
475
470
475
486
498
505
501
491
478
470
471
481
494
504
505
495
482
480
499
540
592
637
659
651
618
576
538
513
499
491
483
470
453
438
428
428
438
453
464
467
462
452
444
443
452
468
482
488
485
475
464
460
465
478
492
500
499
490
478
471
472
483
497
508
510
502
490
