576
598
620
640
656
662
664
660
648
634
612
586
560
540
522
512
506
502
500
494
492
492
496
500
506
506
506
504
502
498
504
508
508
508
506
506
504
506
508
512
514
512
508
506
508
512
512
516
514
512
510
510
512
516
518
518
518
514
514
514
516
520
520
522
518
514
516
518
520
522
522
522
520
518
518
520
524
526
524
522
520
520
520
524
528
530
526
522
522
522
526
528
530
530
526
524
526
528
528
532
532
530
528
526
528
530
534
534
532
530
530
528
530
532
534
534
532
528
526
528
530
532
532
530
528
526
524
528
530
530
530
526
524
524
524
524
530
528
528
526
522
524
524
528
530
530
528
524
524
524
526
530
530
532
526
524
524
526
530
532
530
528
524
524
524
528
530
532
528
526
524
524
526
530
530
530
528
526
524
526
528
530
532
528
528
522
524
526
530
532
530
528
526
524
524
528
530
532
530
526
524
524
526
530
530
528
528
526
526
524
528
530
532
528
526
526
524
526
530
532
530
528
524
522
524
528
530
528
526
524
522
522
524
528
528
528
524
522
522
522
526
528
526
524
522
520
522
524
526
528
526
524
520
520
522
524
526
528
524
522
520
522
526
530
530
532
526
524
522
526
528
530
530
528
522
520
522
524
526
526
524
520
518
518
518
522
524
522
520
516
514
514
518
520
522
520
516
516
516
516
520
524
522
520
514
510
510
510
512
512
512
514
522
530
546
566
584
604
620
636
650
656
656
652
634
614
590
564
546
528
520
512
506
500
496
492
496
498
506
508
506
504
502
506
506
512
514
512
508
508
506
508
512
516
516
514
510
508
512
514
516
520
518
516
514
514
516
518
522
522
522
518
516
518
520
524
524
524
522
522
520
522
524
528
528
526
522
522
522
526
530
530
530
528
526
524
526
532
532
532
532
530
528
528
532
534
536
534
532
532
530
534
536
540
540
536
534
532
534
536
538
540
538
536
534
534
536
538
540
542
536
534
532
534
536
538
538
536
534
530
530
532
534
536
534
532
528
528
528
530
532
534
532
528
526
526
528
530
532
530
530
526
524
528
528
530
532
530
526
524
524
526
530
532
530
528
524
524
526
528
530
532
528
526
524
524
526
530
530
530
528
524
524
524
528
530
530
530
526
524
526
526
530
532
530
528
526
526
526
528
530
532
528
528
524
524
528
532
530
530
530
524
524
526
530
532
532
528
526
524
526
530
530
532
530
528
524
526
528
530
532
530
528
526
526
526
528
530
530
530
526
524
524
526
530
530
532
530
526
526
526
528
530
532
532
528
526
526
530
532
534
536
530
528
528
528
534
536
536
534
534
530
532
534
538
538
538
538
534
532
534
534
536
536
534
530
528
528
530
532
534
532
532
526
524
524
528
530
532
528
526
524
524
528
530
532
532
526
524
524
526
526
526
524
520
514
514
516
522
532
544
556
568
582
602
622
642
656
664
660
648
632
614
594
574
556
538
522
510
504
500
500
502
502
502
500
500
504
506
510
512
512
510
506
506
508
512
514
514
512
510
508
508
512
514
518
516
512
510
510
512
516
518
518
516
512
512
514
518
520
520
518
516
514
514
518
520
522
522
520
518
516
518
520
522
524
522
518
516
518
520
522
524
522
524
520
518
520
522
526
528
524
522
520
522
522
526
528
528
526
522
524
522
528
528
528
526
524
522
524
526
528
530
530
526
524
522
524
526
530
528
524
524
520
520
522
526
528
526
522
520
518
522
524
524
526
524
520
518
516
524
526
524
526
520
520
518
520
524
526
524
524
520
520
520
522
526
526
526
524
522
520
522
524
528
528
526
524
522
524
526
528
530
528
526
524
524
524
528
530
530
526
524
524
524
528
530
530
530
526
524
524
526
530
532
532
530
526
524
526
530
532
532
530
526
526
526
528
530
532
532
528
526
524
524
530
532
532
530
528
526
526
530
532
532
532
530
526
526
528
530
532
534
532
528
526
526
528
532
532
532
530
526
526
528
530
532
534
530
528
528
528
528
532
534
534
530
530
528
528
532
532
534
534
530
530
530
534
538
540
540
534
534
532
536
540
540
540
536
530
530
530
532
534
534
534
530
526
526
528
530
532
532
530
524
522
524
524
528
528
530
526
524
522
524
528
528
528
526
520
516
514
516
518
520
524
528
534
544
562
580
600
618
632
644
650
648
644
630
614
592
570
548
532
522
518
512
508
500
496
492
496
502
504
510
506
506
504
506
510
512
514
512
512
508
508
510
514
514
518
516
512
510
510
514
516
520
520
516
514
514
516
518
522
520
520
516
514
516
516
520
522
522
522
516
516
518
522
524
524
524
518
518
518
522
526
528
526
524
520
520
524
526
528
528
528
524
524
524
526
530
532
532
530
526
526
528
532
534
534
532
528
528
528
530
532
534
532
530
526
526
526
530
534
532
530
528
526
526
528
532
532
530
528
526
524
524
528
528
528
524
524
522
520
524
526
528
526
524
522
522
524
526
528
530
526
522
522
522
526
526
528
526
522
522
522
522
526
528
528
530
524
522
524
526
528
530
528
524
522
522
524
528
530
530
530
524
524
526
530
532
532
528
526
524
526
528
530
532
530
530
528
526
528
530
532
534
532
528
526
526
530
532
532
532
528
526
526
528
530
532
532
530
526
526
526
528
532
532
532
528
526
524
526
530
532
534
530
528
526
526
530
532
534
532
530
528
528
526
532
536
536
530
528
526
526
532
534
536
534
534
532
532
534
538
540
540
540
536
534
534
538
538
538
536
532
530
528
530
532
534
532
530
528
524
524
528
530
530
528
524
522
520
524
528
528
528
528
524
522
524
526
528
528
522
518
514
512
516
522
530
540
546
556
570
586
608
626
642
652
646
636
622
606
592
574
556
536
522
514
508
508
508
506
502
500
498
498
502
508
514
512
512
510
510
512
514
516
518
514
512
508
510
514
516
520
518
514
512
512
516
518
522
522
522
518
514
516
518
522
526
524
520
518
518
520
524
526
530
524
522
520
520
524
526
528
526
524
522
524
524
526
530
530
526
526
524
524
526
530
532
530
528
526
526
530
532
534
532
530
528
526
528
530
532
534
532
530
528
526
530
534
536
534
532
528
526
526
528
532
532
530
526
524
524
522
526
530
528
528
520
522
520
524
526
528
526
524
520
520
524
524
528
526
524
520
520
522
524
526
526
524
522
520
520
522
526
528
528
524
522
520
522
526
528
528
524
522
522
520
524
526
528
528
524
520
520
522
526
528
528
526
524
522
522
526
528
530
530
526
524
524
526
528
532
530
528
526
524
524
528
532
534
532
530
526
526
526
528
530
530
526
524
524
524
528
530
530
530
526
524
524
524
528
530
530
528
526
524
526
528
532
530
528
526
524
524
526
530
532
532
530
526
524
526
530
532
534
534
530
530
528
532
534
536
538
534
532
530
530
532
534
534
532
528
526
526
526
530
532
530
528
524
522
522
526
526
528
526
522
520
520
520
524
526
526
522
520
520
522
524
524
524
520
514
512
510
516
522
532
540
550
562
576
596
616
634
650
652
648
638
622
606
588
570
552
534
520
510
504
502
502
500
496
494
494
498
502
508
510
508
506
506
506
508
510
510
510
512
508
508
508
510
514
514
514
510
510
510
512
514
516
516
516
512
512
514
518
520
520
518
518
514
514
516
520
522
520
520
518
518
518
518
526
524
522
520
518
518
520
522
526
526
522
522
522
522
524
526
528
526
524
522
524
526
528
530
530
526
526
526
526
528
530
532
530
526
526
526
528
530
530
528
528
524
524
524
526
530
532
528
524
522
522
522
528
526
526
524
520
522
524
524
528
526
528
524
522
520
524
526
526
524
522
520
518
520
522
524
524
522
520
518
520
520
524
526
524
520
518
518
520
524
526
526
524
520
518
520
522
526
528
526
524
522
522
524
526
526
526
524
522
522
522
524
526
526
526
524
520
522
522
526
528
530
526
524
524
524
528
530
530
530
526
526
524
526
530
530
530
526
526
524
526
528
530
532
530
528
526
526
528
532
532
532
528
528
528
530
532
534
536
532
528
526
526
528
530
534
532
532
528
528
532
534
536
538
534
534
532
532
532
536
536
534
532
528
528
528
530
532
530
530
526
524
520
524
526
528
528
524
520
522
522
526
528
528
526
524
522
522
522
526
526
526
520
516
514
512
514
518
520
526
532
542
558
578
600
620
638
652
658
660
654
642
626
604
578
556
538
524
518
510
504
502
496
494
496
498
504
506
508
506
506
504
506
510
514
514
514
512
510
508
510
514
516
516
514
512
512
514
516
520
522
518
516
514
514
514
518
520
520
518
518
516
518
522
524
522
522
520
520
520
522
526
528
526
524
522
520
522
524
526
528
526
524
522
522
526
528
528
528
526
524
526
530
532
536
536
534
530
528
528
532
534
536
536
534
528
526
528
530
532
532
530
528
526
528
530
532
534
532
528
528
526
526
530
532
532
530
526
524
524
528
532
530
530
528
524
522
524
528
528
528
526
524
522
524
526
528
530
528
524
524
522
524
526
528
530
526
524
522
524
528
530
528
528
524
522
522
526
530
530
530
530
528
526
526
528
528
526
522
520
518
518
522
526
526
528
526
524
522
524
524
528
530
528
526
524
524
526
528
530
530
526
526
526
526
528
530
532
530
528
524
526
528
532
532
530
528
526
524
526
528
532
532
528
530
528
528
530
532
534
534
532
526
526
526
528
530
530
530
528
528
528
530
536
536
536
532
530
530
532
534
536
536
532
532
526
528
530
532
532
528
526
524
522
524
528
528
528
526
522
520
520
524
526
528
526
524
520
522
524
526
530
530
526
522
518
518
514
514
514
518
520
528
538
556
574
596
616
632
646
656
658
656
644
626
602
578
554
538
526
518
510
506
498
494
494
496
502
506
510
512
508
506
504
504
510
512
512
510
508
506
508
512
514
514
512
510
510
510
512
514
516
516
516
514
514
516
518
520
520
518
516
516
516
518
522
524
524
520
520
520
524
524
526
524
522
518
518
518
522
524
526
526
526
522
520
522
526
528
528
526
526
528
528
530
532
532
530
528
524
524
528
530
532
532
530
528
528
530
532
536
536
534
532
528
528
530
532
536
536
532
532
530
530
532
534
534
534
530
528
526
528
530
530
528
526
522
522
524
524
526
528
528
524
522
522
526
528
528
530
528
526
526
526
528
530
530
528
526
524
524
528
532
534
534
532
526
524
524
528
530
528
524
524
524
522
526
528
530
530
526
526
524
526
528
530
532
530
528
524
528
526
530
532
532
530
528
526
528
530
532
532
530
528
528
524
528
530
532
530
530
526
524
530
530
534
536
534
532
530
530
530
530
528
528
526
524
524
524
528
532
530
530
528
526
528
530
534
534
534
532
530
530
532
534
536
536
536
532
534
532
534
538
536
532
532
528
528
528
530
532
532
530
528
526
528
528
532
530
526
524
520
516
518
520
522
524
522
518
518
520
524
524
526
520
514
510
508
508
512
520
526
536
550
566
586
612
636
654
668
676
676
668
656
636
608
580
554
532
514
504
500
498
496
494
492
492
496
502
504
508
508
506
504
504
504
508
510
512
510
508
508
508
510
514
514
514
512
508
508
510
514
516
516
516
512
512
512
516
520
522
522
514
514
514
518
520
522
524
520
518
518
520
522
526
526
524
520
518
518
518
522
524
526
524
520
518
520
522
526
526
526
522
522
522
524
528
530
532
528
526
524
526
528
532
532
530
528
526
526
528
532
532
534
532
530
532
530
534
536
536
534
528
526
524
526
530
530
530
528
526
526
526
528
530
532
530
528
526
524
526
528
528
526
526
522
520
524
526
528
528
528
524
522
522
528
528
530
532
528
528
528
530
534
536
534
530
524
520
520
522
526
526
526
526
522
522
524
526
530
530
532
526
526
526
528
530
530
530
528
526
524
528
530
532
532
530
528
526
526
528
530
532
530
528
524
524
528
530
532
530
528
528
524
524
528
530
532
532
532
528
526
530
532
534
536
532
530
530
530
532
538
536
534
532
528
528
530
534
536
536
532
532
530
530
532
536
534
534
530
526
526
526
530
532
530
526
524
522
522
524
524
526
524
524
522
520
522
524
528
528
524
522
524
522
524
524
522
518
512
508
508
514
524
534
546
558
572
592
612
636
654
668
670
664
650
632
612
592
572
550
532
518
506
498
498
498
496
494
494
496
498
504
508
508
510
508
504
504
504
508
512
512
510
510
508
510
512
514
514
514
514
512
510
514
516
518
518
516
514
514
516
516
520
520
520
518
516
516
516
522
524
524
526
524
524
524
526
526
524
520
518
516
516
518
520
522
522
520
520
520
522
524
526
530
528
526
524
524
526
528
530
530
530
526
524
528
530
532
534
532
530
528
526
530
532
532
532
530
528
528
528
530
532
532
532
528
526
526
528
530
530
532
530
526
524
526
528
530
532
526
526
522
524
524
530
528
528
524
524
522
524
526
528
528
528
522
522
522
522
528
530
530
528
524
524
524
528
532
534
532
530
528
530
530
532
532
530
528
524
522
524
528
528
528
528
526
524
526
528
532
532
532
528
526
526
528
532
532
532
530
526
524
528
528
532
534
532
530
526
526
526
530
530
532
528
526
526
526
528
532
534
536
532
528
528
528
530
532
530
528
526
526
526
528
532
532
532
530
530
530
532
534
538
536
534
532
532
532
534
536
536
534
528
528
526
528
530
530
530
528
528
524
526
528
530
530
530
526
524
522
524
526
528
528
526
524
522
524
526
526
526
526
522
518
518
518
520
518
520
518
522
532
542
564
582
602
620
636
650
660
662
658
644
626
600
574
554
536
524
516
508
502
496
494
494
496
502
506
506
504
504
504
506
508
510
508
508
506
504
506
508
510
514
512
510
510
508
512
514
516
518
512
512
510
512
514
518
518
518
516
512
514
516
518
520
520
520
516
516
516
520
520
522
520
518
516
518
518
522
524
524
522
520
518
522
524
526
526
526
524
522
522
524
530
528
530
528
524
524
524
528
530
532
528
528
526
524
528
530
530
530
528
526
524
526
530
530
530
530
528
526
524
526
530
530
532
528
524
524
524
526
528
528
526
524
522
522
522
526
526
526
522
520
520
520
524
526
526
524
522
520
522
522
526
526
526
524
522
522
524
526
528
530
526
524
522
524
524
530
530
530
530
524
524
526
526
528
528
526
526
524
524
526
528
530
530
528
526
526
526
528
530
530
530
526
524
526
528
530
530
530
528
526
526
528
532
532
532
532
526
524
526
530
530
530
530
526
524
524
526
528
530
532
528
526
526
526
528
530
532
530
528
526
526
530
532
534
534
530
528
526
528
530
532
532
530
530
526
526
528
532
534
534
532
532
532
532
534
536
538
536
532
530
530
530
534
534
534
530
526
526
526
530
530
530
528
526
522
522
524
526
526
526
526
524
520
524
526
528
526
526
524
522
522
522
522
522
518
514
512
512
516
528
540
554
566
582
598
620
640
658
668
670
660
642
624
602
582
564
544
528
514
504
500
498
500
502
504
502
502
502
504
508
510
512
510
508
506
508
510
514
514
514
512
510
508
514
514
518
516
514
512
512
512
514
520
520
522
518
514
514
518
520
524
524
522
520
516
516
518
520
522
522
518
516
516
518
522
526
524
524
520
520
522
524
526
528
528
526
524
522
524
528
530
528
526
526
524
528
530
532
532
530
528
528
526
528
532
532
532
532
528
526
528
532
534
534
536
530
528
530
532
534
536
536
532
530
526
530
532
534
534
532
530
526
526
528
530
532
532
530
526
524
526
528
530
530
528
526
524
524
526
530
532
530
528
524
524
524
528
530
532
528
526
524
524
528
528
532
530
528
528
524
524
530
532
530
528
526
524
524
526
528
528
530
528
528
524
528
530
534
534
530
526
526
526
528
532
532
532
528
526
528
526
530
530
532
528
526
524
524
526
530
530
528
524
522
522
524
528
532
532
530
528
526
526
528
532
532
528
528
524
522
524
526
530
530
528
526
524
526
528
532
532
530
526
526
524
526
530
532
534
530
528
526
530
532
534
536
534
532
530
530
532
536
536
536
532
530
526
528
530
532
536
530
526
522
522
526
526
526
526
522
518
516
518
520
522
524
524
520
518
520
520
524
524
524
522
520
516
516
516
516
516
512
510
512
518
530
542
558
572
586
602
618
634
646
650
644
628
608
588
566
552
538
528
516
506
500
494
494
496
498
500
502
500
500
502
506
510
514
512
510
508
508
508
514
516
516
514
512
510
512
516
518
518
518
516
512
512
514
518
520
520
520
516
516
520
520
522
524
524
520
518
518
518
524
526
526
524
520
520
520
522
526
528
526
524
522
522
524
526
528
528
528
524
524
522
526
530
532
528
526
524
524
528
530
534
532
530
528
528
526
530
534
534
532
530
526
528
528
532
534
534
530
528
528
530
532
534
534
534
528
526
526
526
530
532
530
528
524
524
524
528
530
530
528
526
522
524
526
528
530
528
526
522
522
522
526
528
528
528
526
522
522
526
528
530
528
526
524
522
524
528
530
532
528
526
522
524
526
528
530
528
526
524
522
526
528
532
532
530
526
524
526
528
530
530
530
528
524
524
526
528
532
532
530
526
524
524
528
530
532
528
528
526
524
526
528
530
530
528
524
524
524
526
530
530
528
526
524
522
526
528
530
528
528
524
522
522
528
530
530
530
528
524
526
528
530
532
530
530
526
526
528
530
534
534
534
532
530
530
534
536
536
538
534
530
528
530
530
532
532
530
526
524
524
524
528
528
530
526
522
522
520
522
526
526
524
520
518
520
522
526
528
526
524
520
518
518
520
520
518
516
512
514
520
530
542
556
570
586
600
616
634
646
652
648
632
612
592
572
554
540
530
520
508
500
496
496
496
500
504
500
500
500
502
506
512
512
512
510
508
506
508
512
512
514
512
510
510
510
512
514
516
516
514
512
512
512
516
518
518
516
516
514
516
516
520
520
520
518
514
516
516
520
524
524
522
520
520
520
522
524
526
522
522
520
520
522
526
530
528
526
524
522
524
526
530
532
530
526
526
526
528
530
534
534
532
528
526
528
532
534
534
532
530
528
528
530
534
534
534
532
530
528
528
530
532
534
532
528
524
524
524
530
532
530
530
524
524
524
526
528
528
526
522
522
522
524
526
528
528
526
522
522
522
526
530
528
526
522
522
522
526
526
530
528
524
524
522
524
524
530
528
524
522
522
522
524
528
530
530
526
524
522
524
528
530
530
528
526
524
524
526
530
530
530
526
524
522
524
528
530
530
530
526
524
524
528
530
530
530
528
524
524
524
530
532
530
530
524
524
526
528
530
530
530
526
526
524
524
528
530
530
528
524
524
524
530
530
532
530
528
524
524
526
528
532
532
530
528
528
530
534
536
536
534
532
530
530
530
534
536
534
532
528
526
526
530
530
532
528
526
522
524
524
528
528
526
524
522
520
522
524
528
528
526
522
522
520
522
524
526
524
520
514
512
512
512
518
522
526
534
544
558
578
596
616
634
644
650
648
642
630
614
594
572
550
532
518
512
508
504
496
496
492
492
494
500
506
506
506
506
504
504
508
512
514
512
510
508
508
508
512
514
514
514
512
510
512
514
516
518
518
514
512
512
512
516
520
520
516
516
514
516
518
522
524
522
518
516
516
518
522
524
524
522
520
518
520
524
524
528
526
524
522
522
526
526
528
530
528
524
524
522
528
530
532
530
526
526
526
528
532
532
534
532
530
526
528
528
534
534
532
530
528
528
530
534
532
532
532
528
526
528
530
532
532
530
526
524
524
526
530
530
530
526
522
522
524
526
526
530
526
524
522
522
526
528
528
528
526
524
522
524
526
528
528
528
524
522
522
524
526
528
528
524
522
522
522
526
530
530
530
524
522
524
526
530
530
530
526
524
524
526
528
530
530
528
526
524
526
526
530
532
530
530
526
526
526
528
530
532
530
526
526
526
528
532
532
532
528
524
524
526
530
532
530
528
526
526
524
528
530
532
530
526
526
524
526
530
532
532
530
528
526
526
528
532
532
530
528
528
528
528
532
534
536
532
530
530
532
534
536
536
536
532
530
528
530
532
532
532
530
526
524
526
528
530
530
526
524
520
520
520
524
526
526
522
522
520
522
524
526
526
524
522
520
520
520
518
518
514
514
510
514
518
530
544
558
574
588
606
624
644
